CH1,CH2,CH3,CH4,CH5,CH6,CH7,CH8,CH9,CH10,CH11,CH12,CH13,CH14,CH15,CH16,label
1484.0,-2109.0,-1679.0,-984.0,-541.0,-10114.0,-4355.0,-1223.0,0.0,0.0,0.0,0.0,0.0,0.0,0.0,0.0,0
-486.0,660.0,536.0,317.0,174.0,3242.0,1399.0,400.0,0.0,0.0,0.0,0.0,0.0,0.0,0.0,0.0,0
-998.0,1376.0,1108.0,642.0,355.0,6654.0,2876.0,799.0,0.0,0.0,0.0,0.0,0.0,0.0,0.0,0.0,0
-838.0,1184.0,937.0,541.0,298.0,5611.0,2428.0,662.0,0.0,0.0,0.0,0.0,0.0,0.0,0.0,0.0,0
-470.0,703.0,541.0,308.0,174.0,3232.0,1394.0,382.0,0.0,0.0,0.0,0.0,0.0,0.0,0.0,0.0,0
-56.0,105.0,73.0,38.0,16.0,459.0,191.0,47.0,0.0,0.0,0.0,0.0,0.0,0.0,0.0,0.0,0
349.0,-496.0,-386.0,-227.0,-131.0,-2278.0,-995.0,-273.0,0.0,0.0,0.0,0.0,0.0,0.0,0.0,0.0,0
607.0,-857.0,-676.0,-389.0,-219.0,-3993.0,-1741.0,-472.0,0.0,0.0,0.0,0.0,0.0,0.0,0.0,0.0,0
582.0,-806.0,-641.0,-368.0,-209.0,-3848.0,-1677.0,-453.0,0.0,0.0,0.0,0.0,0.0,0.0,0.0,0.0,0
352.0,-459.0,-388.0,-215.0,-114.0,-2278.0,-1000.0,-268.0,0.0,0.0,0.0,0.0,0.0,0.0,0.0,0.0,0
103.0,-123.0,-122.0,-57.0,-28.0,-663.0,-300.0,-74.0,0.0,0.0,0.0,0.0,0.0,0.0,0.0,0.0,0
-23.0,19.0,8.0,15.0,8.0,96.0,26.0,15.0,0.0,0.0,0.0,0.0,0.0,0.0,0.0,0.0,0
-55.0,47.0,31.0,21.0,19.0,313.0,127.0,38.0,0.0,0.0,0.0,0.0,0.0,0.0,0.0,0.0,0
-143.0,133.0,116.0,57.0,38.0,783.0,353.0,94.0,0.0,0.0,0.0,0.0,0.0,0.0,0.0,0.0,0
-250.0,281.0,239.0,132.0,79.0,1475.0,657.0,171.0,0.0,0.0,0.0,0.0,0.0,0.0,0.0,0.0,0
-267.0,336.0,285.0,150.0,85.0,1627.0,732.0,183.0,0.0,0.0,0.0,0.0,0.0,0.0,0.0,0.0,0
-154.0,198.0,187.0,95.0,42.0,891.0,421.0,88.0,0.0,0.0,0.0,0.0,0.0,0.0,0.0,0.0,0
-6.0,9.0,32.0,-1.0,-7.0,-85.0,-1.0,-27.0,0.0,0.0,0.0,0.0,0.0,0.0,0.0,0.0,0
47.0,-63.0,-36.0,-32.0,-28.0,-416.0,-158.0,-66.0,0.0,0.0,0.0,0.0,0.0,0.0,0.0,0.0,0
12.0,-12.0,1.0,-13.0,-11.0,-111.0,-36.0,-27.0,0.0,0.0,0.0,0.0,0.0,0.0,0.0,0.0,0
-2.0,23.0,10.0,-5.0,-5.0,111.0,34.0,4.0,0.0,0.0,0.0,0.0,0.0,0.0,0.0,0.0,0
51.0,-49.0,-62.0,-32.0,-16.0,-216.0,-117.0,-27.0,0.0,0.0,0.0,0.0,0.0,0.0,0.0,0.0,0
114.0,-146.0,-137.0,-66.0,-34.0,-651.0,-304.0,-74.0,0.0,0.0,0.0,0.0,0.0,0.0,0.0,0.0,0
101.0,-125.0,-114.0,-49.0,-29.0,-543.0,-265.0,-54.0,0.0,0.0,0.0,0.0,0.0,0.0,0.0,0.0,0
21.0,9.0,-13.0,11.0,7.0,65.0,-8.0,26.0,0.0,0.0,0.0,0.0,0.0,0.0,0.0,0.0,0
-59.0,83.0,60.0,49.0,29.0,458.0,178.0,64.0,0.0,0.0,0.0,0.0,0.0,0.0,0.0,0.0,0
-39.0,35.0,15.0,11.0,7.0,217.0,80.0,32.0,0.0,0.0,0.0,0.0,0.0,0.0,0.0,0.0,0
40.0,-60.0,-69.0,-38.0,-23.0,-227.0,-125.0,-9.0,0.0,0.0,0.0,0.0,0.0,0.0,0.0,0.0,0
32.0,-64.0,-52.0,-26.0,-14.0,-231.0,-120.0,-14.0,0.0,0.0,0.0,0.0,0.0,0.0,0.0,0.0,0
-47.0,25.0,24.0,25.0,18.0,197.0,82.0,24.0,0.0,0.0,0.0,0.0,0.0,0.0,0.0,0.0,0
-72.0,75.0,77.0,53.0,27.0,436.0,191.0,48.0,0.0,0.0,0.0,0.0,0.0,0.0,0.0,0.0,0
-36.0,30.0,40.0,22.0,8.0,131.0,75.0,7.0,0.0,0.0,0.0,0.0,0.0,0.0,0.0,0.0,0
24.0,-55.0,-23.0,-34.0,-15.0,-313.0,-103.0,-49.0,0.0,0.0,0.0,0.0,0.0,0.0,0.0,0.0,0
23.0,-56.0,-33.0,-34.0,-17.0,-325.0,-111.0,-53.0,0.0,0.0,0.0,0.0,0.0,0.0,0.0,0.0,0
-37.0,31.0,36.0,5.0,3.0,72.0,57.0,-8.0,0.0,0.0,0.0,0.0,0.0,0.0,0.0,0.0,0
-56.0,78.0,69.0,24.0,13.0,310.0,153.0,18.0,0.0,0.0,0.0,0.0,0.0,0.0,0.0,0.0,0
-1.0,31.0,17.0,6.0,-4.0,78.0,34.0,-1.0,0.0,0.0,0.0,0.0,0.0,0.0,0.0,0.0,0
43.0,-49.0,-37.0,-28.0,-16.0,-285.0,-126.0,-38.0,0.0,0.0,0.0,0.0,0.0,0.0,0.0,0.0,0
30.0,-47.0,-34.0,-23.0,-9.0,-271.0,-113.0,-37.0,0.0,0.0,0.0,0.0,0.0,0.0,0.0,0.0,0
-18.0,29.0,10.0,7.0,0.0,94.0,47.0,11.0,0.0,0.0,0.0,0.0,0.0,0.0,0.0,0.0,0
-43.0,64.0,31.0,16.0,9.0,315.0,132.0,40.0,0.0,0.0,0.0,0.0,0.0,0.0,0.0,0.0,0
-14.0,5.0,-7.0,-5.0,0.0,108.0,34.0,10.0,0.0,0.0,0.0,0.0,0.0,0.0,0.0,0.0,0
40.0,-65.0,-57.0,-30.0,-19.0,-236.0,-121.0,-31.0,0.0,0.0,0.0,0.0,0.0,0.0,0.0,0.0,0
66.0,-66.0,-67.0,-30.0,-20.0,-252.0,-152.0,-13.0,0.0,0.0,0.0,0.0,0.0,0.0,0.0,0.0,0
27.0,-19.0,-22.0,13.0,-1.0,84.0,-24.0,39.0,0.0,0.0,0.0,0.0,0.0,0.0,0.0,0.0,0
-43.0,41.0,48.0,47.0,22.0,299.0,116.0,47.0,0.0,0.0,0.0,0.0,0.0,0.0,0.0,0.0,0
-43.0,30.0,41.0,16.0,15.0,98.0,72.0,2.0,0.0,0.0,0.0,0.0,0.0,0.0,0.0,0.0,0
-2.0,-35.0,-23.0,-33.0,-12.0,-215.0,-57.0,-42.0,0.0,0.0,0.0,0.0,0.0,0.0,0.0,0.0,0
5.0,-44.0,-35.0,-41.0,-17.0,-222.0,-65.0,-45.0,0.0,0.0,0.0,0.0,0.0,0.0,0.0,0.0,0
-24.0,11.0,3.0,-1.0,-3.0,64.0,40.0,0.0,0.0,0.0,0.0,0.0,0.0,0.0,0.0,0.0,0
-33.0,43.0,17.0,27.0,10.0,241.0,85.0,27.0,0.0,0.0,0.0,0.0,0.0,0.0,0.0,0.0,0
11.0,26.0,6.0,17.0,10.0,72.0,4.0,13.0,0.0,0.0,0.0,0.0,0.0,0.0,0.0,0.0,0
59.0,-17.0,-19.0,-6.0,-1.0,-198.0,-107.0,-16.0,0.0,0.0,0.0,0.0,0.0,0.0,0.0,0.0,0
35.0,-36.0,-31.0,-9.0,-10.0,-192.0,-91.0,-21.0,0.0,0.0,0.0,0.0,0.0,0.0,0.0,0.0,0
-20.0,5.0,16.0,12.0,0.0,75.0,42.0,2.0,0.0,0.0,0.0,0.0,0.0,0.0,0.0,0.0,0
-39.0,53.0,44.0,14.0,5.0,236.0,110.0,29.0,0.0,0.0,0.0,0.0,0.0,0.0,0.0,0.0,0
-11.0,19.0,17.0,-4.0,-6.0,77.0,36.0,9.0,0.0,0.0,0.0,0.0,0.0,0.0,0.0,0.0,0
6.0,-45.0,-14.0,-25.0,-20.0,-178.0,-66.0,-26.0,0.0,0.0,0.0,0.0,0.0,0.0,0.0,0.0,0
-7.0,-52.0,-2.0,-21.0,-15.0,-179.0,-56.0,-38.0,0.0,0.0,0.0,0.0,0.0,0.0,0.0,0.0,0
-46.0,-6.0,22.0,-1.0,-1.0,51.0,37.0,-11.0,0.0,0.0,0.0,0.0,0.0,0.0,0.0,0.0,0
-62.0,12.0,17.0,-4.0,-6.0,195.0,96.0,7.0,0.0,0.0,0.0,0.0,0.0,0.0,0.0,0.0,0
-3.0,2.0,-3.0,-10.0,-7.0,56.0,30.0,1.0,0.0,0.0,0.0,0.0,0.0,0.0,0.0,0.0,0
42.0,-29.0,-27.0,-11.0,-1.0,-164.0,-71.0,-15.0,0.0,0.0,0.0,0.0,0.0,0.0,0.0,0.0,0
34.0,-31.0,-36.0,-5.0,0.0,-167.0,-81.0,-19.0,0.0,0.0,0.0,0.0,0.0,0.0,0.0,0.0,0
12.0,32.0,-6.0,8.0,8.0,53.0,-1.0,8.0,0.0,0.0,0.0,0.0,0.0,0.0,0.0,0.0,0
-7.0,82.0,12.0,13.0,3.0,187.0,59.0,23.0,0.0,0.0,0.0,0.0,0.0,0.0,0.0,0.0,0
12.0,27.0,-21.0,-5.0,-7.0,56.0,2.0,13.0,0.0,0.0,0.0,0.0,0.0,0.0,0.0,0.0,0
45.0,-54.0,-60.0,-26.0,-19.0,-147.0,-91.0,-9.0,0.0,0.0,0.0,0.0,0.0,0.0,0.0,0.0,0
36.0,-68.0,-45.0,-18.0,-7.0,-141.0,-83.0,-5.0,0.0,0.0,0.0,0.0,0.0,0.0,0.0,0.0,0
-10.0,-15.0,6.0,13.0,7.0,57.0,14.0,15.0,0.0,0.0,0.0,0.0,0.0,0.0,0.0,0.0,0
-34.0,37.0,41.0,28.0,14.0,174.0,68.0,26.0,0.0,0.0,0.0,0.0,0.0,0.0,0.0,0.0,0
-24.0,21.0,33.0,17.0,-1.0,57.0,25.0,11.0,0.0,0.0,0.0,0.0,0.0,0.0,0.0,0.0,0
-2.0,-24.0,3.0,-7.0,-13.0,-125.0,-46.0,-22.0,0.0,0.0,0.0,0.0,0.0,0.0,0.0,0.0,0
-10.0,-25.0,-8.0,-24.0,-12.0,-131.0,-31.0,-35.0,0.0,0.0,0.0,0.0,0.0,0.0,0.0,0.0,0
-36.0,6.0,20.0,-13.0,0.0,38.0,53.0,-12.0,0.0,0.0,0.0,0.0,0.0,0.0,0.0,0.0,0
-41.0,29.0,27.0,7.0,9.0,145.0,82.0,1.0,0.0,0.0,0.0,0.0,0.0,0.0,0.0,0.0,0
-20.0,5.0,4.0,4.0,-1.0,41.0,23.0,-1.0,0.0,0.0,0.0,0.0,0.0,0.0,0.0,0.0,0
15.0,-23.0,-18.0,-15.0,-12.0,-123.0,-41.0,-21.0,0.0,0.0,0.0,0.0,0.0,0.0,0.0,0.0,0
16.0,-10.0,-15.0,-12.0,-11.0,-120.0,-43.0,-25.0,0.0,0.0,0.0,0.0,0.0,0.0,0.0,0.0,0
-8.0,7.0,1.0,-1.0,-5.0,34.0,18.0,-4.0,0.0,0.0,0.0,0.0,0.0,0.0,0.0,0.0,0
-29.0,31.0,28.0,16.0,2.0,124.0,50.0,5.0,0.0,0.0,0.0,0.0,0.0,0.0,0.0,0.0,0
-5.0,12.0,13.0,14.0,6.0,40.0,8.0,4.0,0.0,0.0,0.0,0.0,0.0,0.0,0.0,0.0,0
29.0,-20.0,-27.0,-13.0,-4.0,-104.0,-55.0,-14.0,0.0,0.0,0.0,0.0,0.0,0.0,0.0,0.0,0
33.0,-24.0,-31.0,-22.0,1.0,-105.0,-60.0,-13.0,0.0,0.0,0.0,0.0,0.0,0.0,0.0,0.0,0
14.0,0.0,-14.0,-2.0,3.0,35.0,-7.0,11.0,0.0,0.0,0.0,0.0,0.0,0.0,0.0,0.0,0
-10.0,18.0,4.0,5.0,-1.0,116.0,34.0,25.0,0.0,0.0,0.0,0.0,0.0,0.0,0.0,0.0,0
4.0,-8.0,-15.0,-7.0,-11.0,34.0,-3.0,21.0,0.0,0.0,0.0,0.0,0.0,0.0,0.0,0.0,0
21.0,-38.0,-49.0,-17.0,-19.0,-91.0,-64.0,6.0,0.0,0.0,0.0,0.0,0.0,0.0,0.0,0.0,0
22.0,-35.0,-35.0,-15.0,-10.0,-87.0,-56.0,-7.0,0.0,0.0,0.0,0.0,0.0,0.0,0.0,0.0,0
-3.0,0.0,-2.0,4.0,0.0,35.0,9.0,6.0,0.0,0.0,0.0,0.0,0.0,0.0,0.0,0.0,0
-20.0,18.0,17.0,21.0,3.0,109.0,43.0,18.0,0.0,0.0,0.0,0.0,0.0,0.0,0.0,0.0,0
-22.0,14.0,19.0,24.0,11.0,38.0,21.0,1.0,0.0,0.0,0.0,0.0,0.0,0.0,0.0,0.0,0
-18.0,-16.0,-1.0,-3.0,6.0,-85.0,-21.0,-19.0,0.0,0.0,0.0,0.0,0.0,0.0,0.0,0.0,0
-18.0,-13.0,8.0,-17.0,-1.0,-81.0,-18.0,-19.0,0.0,0.0,0.0,0.0,0.0,0.0,0.0,0.0,0
-31.0,19.0,38.0,5.0,-2.0,28.0,36.0,-21.0,0.0,0.0,0.0,0.0,0.0,0.0,0.0,0.0,0
-23.0,35.0,31.0,11.0,3.0,94.0,65.0,-1.0,0.0,0.0,0.0,0.0,0.0,0.0,0.0,0.0,0
7.0,23.0,10.0,-2.0,1.0,25.0,27.0,-1.0,0.0,0.0,0.0,0.0,0.0,0.0,0.0,0.0,0
16.0,-3.0,-8.0,-10.0,-10.0,-81.0,-26.0,-18.0,0.0,0.0,0.0,0.0,0.0,0.0,0.0,0.0,0
14.0,-12.0,-7.0,-9.0,-9.0,-83.0,-30.0,-20.0,0.0,0.0,0.0,0.0,0.0,0.0,0.0,0.0,0
-1.0,6.0,4.0,-2.0,-8.0,17.0,17.0,-6.0,0.0,0.0,0.0,0.0,0.0,0.0,0.0,0.0,0
-14.0,13.0,1.0,7.0,-2.0,78.0,30.0,2.0,0.0,0.0,0.0,0.0,0.0,0.0,0.0,0.0,0
-6.0,-9.0,-11.0,-17.0,-9.0,24.0,-3.0,-2.0,0.0,0.0,0.0,0.0,0.0,0.0,0.0,0.0,0
-18.0,-53.0,-34.0,-28.0,-10.0,-78.0,-40.0,-11.0,0.0,0.0,0.0,0.0,0.0,0.0,0.0,0.0,0
-23.0,-57.0,-34.0,-17.0,-7.0,-71.0,-49.0,-6.0,0.0,0.0,0.0,0.0,0.0,0.0,0.0,0.0,0
-7.0,-16.0,-9.0,-1.0,5.0,20.0,-12.0,14.0,0.0,0.0,0.0,0.0,0.0,0.0,0.0,0.0,0
6.0,17.0,8.0,17.0,9.0,84.0,21.0,22.0,0.0,0.0,0.0,0.0,0.0,0.0,0.0,0.0,0
32.0,14.0,1.0,7.0,-2.0,33.0,-5.0,12.0,0.0,0.0,0.0,0.0,0.0,0.0,0.0,0.0,0
55.0,6.0,-21.0,-8.0,-3.0,-65.0,-55.0,1.0,0.0,0.0,0.0,0.0,0.0,0.0,0.0,0.0,0
37.0,7.0,-21.0,-6.0,1.0,-63.0,-47.0,-3.0,0.0,0.0,0.0,0.0,0.0,0.0,0.0,0.0,0
1.0,14.0,2.0,6.0,0.0,19.0,-4.0,7.0,0.0,0.0,0.0,0.0,0.0,0.0,0.0,0.0,0
-10.0,9.0,7.0,16.0,-4.0,71.0,23.0,11.0,0.0,0.0,0.0,0.0,0.0,0.0,0.0,0.0,0
-23.0,-3.0,6.0,16.0,1.0,25.0,15.0,2.0,0.0,0.0,0.0,0.0,0.0,0.0,0.0,0.0,0
-18.0,-12.0,1.0,4.0,3.0,-44.0,-10.0,-14.0,0.0,0.0,0.0,0.0,0.0,0.0,0.0,0.0,0
-13.0,-5.0,8.0,0.0,-2.0,-51.0,-1.0,-14.0,0.0,0.0,0.0,0.0,0.0,0.0,0.0,0.0,0
-34.0,3.0,18.0,-2.0,-3.0,22.0,39.0,-11.0,0.0,0.0,0.0,0.0,0.0,0.0,0.0,0.0,0
-42.0,-1.0,19.0,-3.0,-5.0,56.0,54.0,-13.0,0.0,0.0,0.0,0.0,0.0,0.0,0.0,0.0,0
-26.0,-9.0,9.0,-16.0,-7.0,5.0,21.0,-12.0,0.0,0.0,0.0,0.0,0.0,0.0,0.0,0.0,0
-2.0,-11.0,3.0,-17.0,-10.0,-61.0,-10.0,-17.0,0.0,0.0,0.0,0.0,0.0,0.0,0.0,0.0,0
-7.0,-8.0,4.0,-13.0,-5.0,-61.0,-13.0,-17.0,0.0,0.0,0.0,0.0,0.0,0.0,0.0,0.0,0
-7.0,17.0,7.0,-6.0,6.0,9.0,5.0,-9.0,0.0,0.0,0.0,0.0,0.0,0.0,0.0,0.0,0
-1.0,23.0,1.0,-4.0,-3.0,58.0,12.0,5.0,0.0,0.0,0.0,0.0,0.0,0.0,0.0,0.0,0
18.0,7.0,-2.0,2.0,-8.0,14.0,0.0,2.0,0.0,0.0,0.0,0.0,0.0,0.0,0.0,0.0,0
25.0,-4.0,-1.0,-3.0,-7.0,-51.0,-30.0,-5.0,0.0,0.0,0.0,0.0,0.0,0.0,0.0,0.0,0
27.0,-6.0,-28.0,-15.0,-8.0,-52.0,-40.0,-1.0,0.0,0.0,0.0,0.0,0.0,0.0,0.0,0.0,0
23.0,-7.0,-40.0,-16.0,-5.0,12.0,-17.0,14.0,0.0,0.0,0.0,0.0,0.0,0.0,0.0,0.0,0
-3.0,-24.0,-22.0,-8.0,-3.0,53.0,8.0,16.0,0.0,0.0,0.0,0.0,0.0,0.0,0.0,0.0,0
-4.0,-29.0,-14.0,2.0,3.0,18.0,-17.0,13.0,0.0,0.0,0.0,0.0,0.0,0.0,0.0,0.0,0
14.0,-29.0,-17.0,3.0,9.0,-41.0,-45.0,4.0,0.0,0.0,0.0,0.0,0.0,0.0,0.0,0.0,0
10.0,-31.0,-29.0,9.0,5.0,-40.0,-30.0,-9.0,0.0,0.0,0.0,0.0,0.0,0.0,0.0,0.0,0
-13.0,-15.0,-20.0,11.0,5.0,18.0,1.0,2.0,0.0,0.0,0.0,0.0,0.0,0.0,0.0,0.0,0
-21.0,16.0,-4.0,15.0,2.0,57.0,14.0,1.0,0.0,0.0,0.0,0.0,0.0,0.0,0.0,0.0,0
-13.0,43.0,27.0,14.0,-2.0,19.0,13.0,1.0,0.0,0.0,0.0,0.0,0.0,0.0,0.0,0.0,0
7.0,31.0,37.0,14.0,-4.0,-42.0,-7.0,1.0,0.0,0.0,0.0,0.0,0.0,0.0,0.0,0.0,0
-2.0,11.0,24.0,0.0,-6.0,-40.0,4.0,-7.0,0.0,0.0,0.0,0.0,0.0,0.0,0.0,0.0,0
-23.0,0.0,22.0,-12.0,-9.0,10.0,39.0,-15.0,0.0,0.0,0.0,0.0,0.0,0.0,0.0,0.0,0
-35.0,4.0,26.0,-19.0,-10.0,39.0,39.0,-11.0,0.0,0.0,0.0,0.0,0.0,0.0,0.0,0.0,0
-27.0,-7.0,7.0,-7.0,-1.0,11.0,20.0,-9.0,0.0,0.0,0.0,0.0,0.0,0.0,0.0,0.0,0
-12.0,-16.0,-6.0,-9.0,7.0,-35.0,4.0,-16.0,0.0,0.0,0.0,0.0,0.0,0.0,0.0,0.0,0
-4.0,-10.0,-14.0,-13.0,1.0,-32.0,-11.0,-19.0,0.0,0.0,0.0,0.0,0.0,0.0,0.0,0.0,0
0.0,6.0,-10.0,-6.0,-2.0,1.0,-5.0,-8.0,0.0,0.0,0.0,0.0,0.0,0.0,0.0,0.0,0
3.0,5.0,3.0,5.0,4.0,26.0,7.0,0.0,0.0,0.0,0.0,0.0,0.0,0.0,0.0,0.0,0
14.0,-5.0,-2.0,5.0,-8.0,-1.0,-4.0,4.0,0.0,0.0,0.0,0.0,0.0,0.0,0.0,0.0,0
19.0,-16.0,-15.0,-8.0,-19.0,-37.0,-22.0,-2.0,0.0,0.0,0.0,0.0,0.0,0.0,0.0,0.0,0
19.0,-19.0,-20.0,-11.0,-11.0,-33.0,-30.0,-9.0,0.0,0.0,0.0,0.0,0.0,0.0,0.0,0.0,0
17.0,-15.0,-14.0,-2.0,-3.0,3.0,-23.0,6.0,0.0,0.0,0.0,0.0,0.0,0.0,0.0,0.0,0
3.0,5.0,-7.0,3.0,8.0,31.0,-9.0,17.0,0.0,0.0,0.0,0.0,0.0,0.0,0.0,0.0,0
8.0,19.0,-10.0,0.0,2.0,9.0,-16.0,10.0,0.0,0.0,0.0,0.0,0.0,0.0,0.0,0.0,0
16.0,6.0,-17.0,-2.0,-4.0,-25.0,-35.0,6.0,0.0,0.0,0.0,0.0,0.0,0.0,0.0,0.0,0
8.0,-6.0,-13.0,0.0,-1.0,-28.0,-23.0,9.0,0.0,0.0,0.0,0.0,0.0,0.0,0.0,0.0,0
-2.0,-13.0,-5.0,8.0,0.0,11.0,2.0,7.0,0.0,0.0,0.0,0.0,0.0,0.0,0.0,0.0,0
-11.0,-21.0,3.0,8.0,1.0,43.0,4.0,10.0,0.0,0.0,0.0,0.0,0.0,0.0,0.0,0.0,0
-28.0,-23.0,1.0,-8.0,-7.0,14.0,8.0,2.0,0.0,0.0,0.0,0.0,0.0,0.0,0.0,0.0,0
-20.0,-21.0,-15.0,-21.0,-9.0,-28.0,5.0,-9.0,0.0,0.0,0.0,0.0,0.0,0.0,0.0,0.0,0
-15.0,-9.0,-2.0,-16.0,-4.0,-27.0,9.0,-16.0,0.0,0.0,0.0,0.0,0.0,0.0,0.0,0.0,0
-22.0,8.0,20.0,-4.0,3.0,5.0,27.0,-12.0,0.0,0.0,0.0,0.0,0.0,0.0,0.0,0.0,0
-17.0,28.0,35.0,15.0,10.0,26.0,32.0,-17.0,0.0,0.0,0.0,0.0,0.0,0.0,0.0,0.0,0
-6.0,22.0,19.0,6.0,-2.0,8.0,17.0,-13.0,0.0,0.0,0.0,0.0,0.0,0.0,0.0,0.0,0
-6.0,8.0,3.0,-10.0,-8.0,-29.0,6.0,-11.0,0.0,0.0,0.0,0.0,0.0,0.0,0.0,0.0,0
-10.0,6.0,7.0,-10.0,0.0,-30.0,2.0,-8.0,0.0,0.0,0.0,0.0,0.0,0.0,0.0,0.0,0
-9.0,8.0,9.0,-12.0,-1.0,1.0,7.0,-6.0,0.0,0.0,0.0,0.0,0.0,0.0,0.0,0.0,0
-5.0,-7.0,1.0,0.0,-9.0,15.0,2.0,0.0,0.0,0.0,0.0,0.0,0.0,0.0,0.0,0.0,0
2.0,-16.0,-8.0,1.0,-9.0,2.0,-10.0,-3.0,0.0,0.0,0.0,0.0,0.0,0.0,0.0,0.0,0
5.0,-9.0,-19.0,3.0,-5.0,-26.0,-21.0,-10.0,0.0,0.0,0.0,0.0,0.0,0.0,0.0,0.0,0
19.0,-8.0,-19.0,7.0,-5.0,-22.0,-33.0,-5.0,0.0,0.0,0.0,0.0,0.0,0.0,0.0,0.0,0
28.0,-5.0,-17.0,5.0,1.0,13.0,-32.0,8.0,0.0,0.0,0.0,0.0,0.0,0.0,0.0,0.0,0
20.0,-3.0,-18.0,-3.0,1.0,26.0,-6.0,13.0,0.0,0.0,0.0,0.0,0.0,0.0,0.0,0.0,0
19.0,-6.0,-18.0,-8.0,-2.0,5.0,-17.0,16.0,0.0,0.0,0.0,0.0,0.0,0.0,0.0,0.0,0
20.0,-4.0,-26.0,-8.0,-7.0,-24.0,-31.0,11.0,0.0,0.0,0.0,0.0,0.0,0.0,0.0,0.0,0
14.0,-5.0,-17.0,0.0,0.0,-21.0,-27.0,6.0,0.0,0.0,0.0,0.0,0.0,0.0,0.0,0.0,0
-14.0,-4.0,-3.0,3.0,4.0,11.0,-9.0,7.0,0.0,0.0,0.0,0.0,0.0,0.0,0.0,0.0,0
-34.0,-17.0,-1.0,7.0,-2.0,27.0,5.0,6.0,0.0,0.0,0.0,0.0,0.0,0.0,0.0,0.0,0
-36.0,-19.0,10.0,-1.0,-2.0,15.0,18.0,-1.0,0.0,0.0,0.0,0.0,0.0,0.0,0.0,0.0,0
-20.0,-6.0,13.0,-10.0,-5.0,-18.0,11.0,-11.0,0.0,0.0,0.0,0.0,0.0,0.0,0.0,0.0,0
-6.0,10.0,19.0,-2.0,1.0,-17.0,16.0,-12.0,0.0,0.0,0.0,0.0,0.0,0.0,0.0,0.0,0
-13.0,20.0,29.0,2.0,-2.0,9.0,26.0,-13.0,0.0,0.0,0.0,0.0,0.0,0.0,0.0,0.0,0
-17.0,15.0,10.0,-4.0,-1.0,19.0,29.0,-5.0,0.0,0.0,0.0,0.0,0.0,0.0,0.0,0.0,0
-9.0,3.0,-4.0,-9.0,-3.0,-2.0,20.0,-8.0,0.0,0.0,0.0,0.0,0.0,0.0,0.0,0.0,0
-8.0,-5.0,-1.0,-9.0,-5.0,-21.0,5.0,-16.0,0.0,0.0,0.0,0.0,0.0,0.0,0.0,0.0,0
-7.0,-2.0,3.0,-6.0,-5.0,-25.0,-2.0,-17.0,0.0,0.0,0.0,0.0,0.0,0.0,0.0,0.0,0
-1.0,7.0,9.0,6.0,-8.0,-1.0,0.0,-14.0,0.0,0.0,0.0,0.0,0.0,0.0,0.0,0.0,0
9.0,18.0,12.0,6.0,-2.0,7.0,-1.0,-5.0,0.0,0.0,0.0,0.0,0.0,0.0,0.0,0.0,0
10.0,9.0,3.0,-3.0,-8.0,3.0,-9.0,-4.0,0.0,0.0,0.0,0.0,0.0,0.0,0.0,0.0,0
8.0,-15.0,-22.0,-15.0,-10.0,-20.0,-15.0,0.0,0.0,0.0,0.0,0.0,0.0,0.0,0.0,0.0,0
-3.0,-36.0,-30.0,-25.0,-11.0,-27.0,-25.0,2.0,0.0,0.0,0.0,0.0,0.0,0.0,0.0,0.0,0
16.0,-11.0,-16.0,-8.0,-2.0,-5.0,-26.0,1.0,0.0,0.0,0.0,0.0,0.0,0.0,0.0,0.0,0
18.0,-8.0,-24.0,0.0,4.0,13.0,-14.0,7.0,0.0,0.0,0.0,0.0,0.0,0.0,0.0,0.0,0
3.0,-13.0,-29.0,3.0,3.0,9.0,-17.0,7.0,0.0,0.0,0.0,0.0,0.0,0.0,0.0,0.0,0
15.0,-5.0,-23.0,11.0,5.0,-4.0,-25.0,14.0,0.0,0.0,0.0,0.0,0.0,0.0,0.0,0.0,0
18.0,4.0,0.0,16.0,10.0,-3.0,-15.0,14.0,0.0,0.0,0.0,0.0,0.0,0.0,0.0,0.0,0
8.0,1.0,-1.0,5.0,-2.0,15.0,-7.0,10.0,0.0,0.0,0.0,0.0,0.0,0.0,0.0,0.0,0
-4.0,-7.0,1.0,-1.0,-4.0,16.0,-6.0,3.0,0.0,0.0,0.0,0.0,0.0,0.0,0.0,0.0,0
-13.0,-5.0,3.0,-4.0,-4.0,9.0,8.0,-9.0,0.0,0.0,0.0,0.0,0.0,0.0,0.0,0.0,0
-22.0,-6.0,3.0,-10.0,-3.0,-15.0,6.0,-5.0,0.0,0.0,0.0,0.0,0.0,0.0,0.0,0.0,0
-33.0,-11.0,7.0,-7.0,-7.0,-14.0,17.0,-13.0,0.0,0.0,0.0,0.0,0.0,0.0,0.0,0.0,0
-39.0,-5.0,19.0,3.0,-3.0,2.0,35.0,-16.0,0.0,0.0,0.0,0.0,0.0,0.0,0.0,0.0,0
-29.0,7.0,23.0,-3.0,-3.0,3.0,27.0,-11.0,0.0,0.0,0.0,0.0,0.0,0.0,0.0,0.0,0
-16.0,9.0,22.0,-8.0,-4.0,-2.0,12.0,-12.0,0.0,0.0,0.0,0.0,0.0,0.0,0.0,0.0,0
-5.0,3.0,9.0,-6.0,-3.0,-18.0,5.0,-13.0,0.0,0.0,0.0,0.0,0.0,0.0,0.0,0.0,0
14.0,11.0,8.0,0.0,0.0,-18.0,1.0,-12.0,0.0,0.0,0.0,0.0,0.0,0.0,0.0,0.0,0
19.0,15.0,-2.0,3.0,1.0,-1.0,4.0,-10.0,0.0,0.0,0.0,0.0,0.0,0.0,0.0,0.0,0
14.0,22.0,-3.0,6.0,1.0,7.0,0.0,-2.0,0.0,0.0,0.0,0.0,0.0,0.0,0.0,0.0,0
3.0,9.0,-6.0,1.0,2.0,0.0,-3.0,8.0,0.0,0.0,0.0,0.0,0.0,0.0,0.0,0.0,0
-2.0,-4.0,-5.0,-8.0,2.0,-9.0,-13.0,-2.0,0.0,0.0,0.0,0.0,0.0,0.0,0.0,0.0,0
4.0,-8.0,-17.0,-8.0,-2.0,-13.0,-14.0,-3.0,0.0,0.0,0.0,0.0,0.0,0.0,0.0,0.0,0
10.0,-22.0,-32.0,-8.0,-11.0,-5.0,-24.0,3.0,0.0,0.0,0.0,0.0,0.0,0.0,0.0,0.0,0
6.0,-30.0,-35.0,-13.0,-14.0,2.0,-26.0,6.0,0.0,0.0,0.0,0.0,0.0,0.0,0.0,0.0,0
7.0,-29.0,-24.0,-8.0,-8.0,-1.0,-18.0,1.0,0.0,0.0,0.0,0.0,0.0,0.0,0.0,0.0,0
10.0,-24.0,-18.0,2.0,-1.0,-9.0,-28.0,11.0,0.0,0.0,0.0,0.0,0.0,0.0,0.0,0.0,0
7.0,-18.0,-14.0,0.0,-2.0,-1.0,-29.0,9.0,0.0,0.0,0.0,0.0,0.0,0.0,0.0,0.0,0
6.0,-9.0,-6.0,5.0,-4.0,11.0,-14.0,6.0,0.0,0.0,0.0,0.0,0.0,0.0,0.0,0.0,0
-1.0,-4.0,-3.0,4.0,-5.0,11.0,4.0,11.0,0.0,0.0,0.0,0.0,0.0,0.0,0.0,0.0,0
-11.0,-1.0,6.0,-2.0,2.0,2.0,18.0,7.0,0.0,0.0,0.0,0.0,0.0,0.0,0.0,0.0,0
-25.0,0.0,10.0,-11.0,9.0,-9.0,17.0,-12.0,0.0,0.0,0.0,0.0,0.0,0.0,0.0,0.0,0
-29.0,1.0,16.0,0.0,5.0,-4.0,23.0,-23.0,0.0,0.0,0.0,0.0,0.0,0.0,0.0,0.0,0
-30.0,7.0,30.0,8.0,2.0,4.0,25.0,-21.0,0.0,0.0,0.0,0.0,0.0,0.0,0.0,0.0,0
-19.0,10.0,19.0,3.0,-5.0,3.0,20.0,-17.0,0.0,0.0,0.0,0.0,0.0,0.0,0.0,0.0,0
2.0,41.0,20.0,3.0,-6.0,-2.0,13.0,0.0,0.0,0.0,0.0,0.0,0.0,0.0,0.0,0.0,0
9.0,61.0,19.0,4.0,-1.0,-13.0,6.0,-4.0,0.0,0.0,0.0,0.0,0.0,0.0,0.0,0.0,0
9.0,35.0,10.0,-7.0,-6.0,-16.0,2.0,-9.0,0.0,0.0,0.0,0.0,0.0,0.0,0.0,0.0,0
-4.0,1.0,-6.0,-7.0,-7.0,-5.0,1.0,-5.0,0.0,0.0,0.0,0.0,0.0,0.0,0.0,0.0,0
-9.0,-29.0,-16.0,-5.0,-5.0,-1.0,1.0,-9.0,0.0,0.0,0.0,0.0,0.0,0.0,0.0,0.0,0
-1.0,-42.0,-24.0,-15.0,-2.0,-4.0,-6.0,-4.0,0.0,0.0,0.0,0.0,0.0,0.0,0.0,0.0,0
-7.0,-47.0,-21.0,-16.0,-2.0,-11.0,-14.0,-5.0,0.0,0.0,0.0,0.0,0.0,0.0,0.0,0.0,0
-2.0,-39.0,-19.0,-7.0,-5.0,-9.0,-24.0,-3.0,0.0,0.0,0.0,0.0,0.0,0.0,0.0,0.0,0
18.0,-23.0,-19.0,-4.0,-3.0,-3.0,-28.0,3.0,0.0,0.0,0.0,0.0,0.0,0.0,0.0,0.0,0
15.0,-3.0,-16.0,-3.0,-4.0,0.0,-19.0,17.0,0.0,0.0,0.0,0.0,0.0,0.0,0.0,0.0,0
18.0,3.0,-17.0,-2.0,-1.0,1.0,-17.0,10.0,0.0,0.0,0.0,0.0,0.0,0.0,0.0,0.0,0
15.0,-10.0,-19.0,-1.0,3.0,-4.0,-26.0,11.0,0.0,0.0,0.0,0.0,0.0,0.0,0.0,0.0,0
6.0,0.0,-14.0,6.0,-2.0,2.0,-20.0,9.0,0.0,0.0,0.0,0.0,0.0,0.0,0.0,0.0,0
0.0,16.0,-7.0,1.0,-6.0,12.0,-5.0,10.0,0.0,0.0,0.0,0.0,0.0,0.0,0.0,0.0,0
-8.0,10.0,0.0,6.0,-6.0,11.0,-2.0,8.0,0.0,0.0,0.0,0.0,0.0,0.0,0.0,0.0,0
-20.0,7.0,15.0,4.0,6.0,4.0,14.0,2.0,0.0,0.0,0.0,0.0,0.0,0.0,0.0,0.0,0
-12.0,2.0,18.0,4.0,1.0,-7.0,17.0,-4.0,0.0,0.0,0.0,0.0,0.0,0.0,0.0,0.0,0
-14.0,1.0,19.0,-4.0,-1.0,-5.0,15.0,-20.0,0.0,0.0,0.0,0.0,0.0,0.0,0.0,0.0,0
-24.0,6.0,28.0,4.0,3.0,2.0,25.0,-23.0,0.0,0.0,0.0,0.0,0.0,0.0,0.0,0.0,0
-8.0,7.0,19.0,0.0,0.0,-3.0,21.0,-14.0,0.0,0.0,0.0,0.0,0.0,0.0,0.0,0.0,0
-12.0,-18.0,-1.0,-3.0,0.0,-6.0,17.0,-12.0,0.0,0.0,0.0,0.0,0.0,0.0,0.0,0.0,0
-13.0,-9.0,3.0,2.0,2.0,-7.0,13.0,-9.0,0.0,0.0,0.0,0.0,0.0,0.0,0.0,0.0,0
-3.0,16.0,9.0,-4.0,-3.0,-6.0,-1.0,-13.0,0.0,0.0,0.0,0.0,0.0,0.0,0.0,0.0,0
-4.0,23.0,1.0,-14.0,-11.0,-10.0,-8.0,-11.0,0.0,0.0,0.0,0.0,0.0,0.0,0.0,0.0,0
-1.0,11.0,-16.0,-22.0,-16.0,-7.0,-9.0,-6.0,0.0,0.0,0.0,0.0,0.0,0.0,0.0,0.0,0
-6.0,-6.0,-17.0,-17.0,-7.0,-5.0,-6.0,2.0,0.0,0.0,0.0,0.0,0.0,0.0,0.0,0.0,0
-6.0,-8.0,-16.0,-5.0,-3.0,-8.0,-5.0,-3.0,0.0,0.0,0.0,0.0,0.0,0.0,0.0,0.0,0
8.0,-9.0,-17.0,1.0,-2.0,-6.0,-12.0,0.0,0.0,0.0,0.0,0.0,0.0,0.0,0.0,0.0,0
11.0,-22.0,-19.0,6.0,0.0,3.0,-23.0,7.0,0.0,0.0,0.0,0.0,0.0,0.0,0.0,0.0,0
10.0,-35.0,-12.0,8.0,-6.0,11.0,-26.0,7.0,0.0,0.0,0.0,0.0,0.0,0.0,0.0,0.0,0
23.0,-25.0,-11.0,-4.0,-1.0,-4.0,-23.0,8.0,0.0,0.0,0.0,0.0,0.0,0.0,0.0,0.0,0
34.0,-7.0,-23.0,-4.0,1.0,-15.0,-31.0,11.0,0.0,0.0,0.0,0.0,0.0,0.0,0.0,0.0,0
15.0,-1.0,-26.0,-10.0,-1.0,-9.0,-23.0,16.0,0.0,0.0,0.0,0.0,0.0,0.0,0.0,0.0,0
0.0,2.0,-12.0,-5.0,-5.0,4.0,-11.0,14.0,0.0,0.0,0.0,0.0,0.0,0.0,0.0,0.0,0
-4.0,10.0,12.0,7.0,0.0,12.0,0.0,-2.0,0.0,0.0,0.0,0.0,0.0,0.0,0.0,0.0,0
-8.0,21.0,21.0,15.0,8.0,13.0,8.0,-7.0,0.0,0.0,0.0,0.0,0.0,0.0,0.0,0.0,0
-21.0,13.0,11.0,4.0,7.0,8.0,17.0,-6.0,0.0,0.0,0.0,0.0,0.0,0.0,0.0,0.0,0
-23.0,4.0,10.0,3.0,5.0,4.0,21.0,-11.0,0.0,0.0,0.0,0.0,0.0,0.0,0.0,0.0,0
-29.0,4.0,30.0,1.0,0.0,0.0,26.0,-15.0,0.0,0.0,0.0,0.0,0.0,0.0,0.0,0.0,0
-37.0,-11.0,25.0,-3.0,-7.0,-8.0,29.0,-9.0,0.0,0.0,0.0,0.0,0.0,0.0,0.0,0.0,0
-23.0,-7.0,15.0,-7.0,-13.0,-9.0,15.0,-11.0,0.0,0.0,0.0,0.0,0.0,0.0,0.0,0.0,0
-14.0,2.0,8.0,-12.0,-12.0,-11.0,8.0,-16.0,0.0,0.0,0.0,0.0,0.0,0.0,0.0,0.0,0
-3.0,8.0,-1.0,-8.0,-7.0,-11.0,3.0,-10.0,0.0,0.0,0.0,0.0,0.0,0.0,0.0,0.0,0
8.0,5.0,-11.0,-12.0,-3.0,-10.0,1.0,-9.0,0.0,0.0,0.0,0.0,0.0,0.0,0.0,0.0,0
8.0,-5.0,-23.0,-15.0,-3.0,-7.0,-4.0,-9.0,0.0,0.0,0.0,0.0,0.0,0.0,0.0,0.0,0
7.0,-12.0,-26.0,-11.0,-5.0,-2.0,-9.0,-6.0,0.0,0.0,0.0,0.0,0.0,0.0,0.0,0.0,0
4.0,-17.0,-23.0,-10.0,-6.0,-6.0,-15.0,-6.0,0.0,0.0,0.0,0.0,0.0,0.0,0.0,0.0,0
13.0,-7.0,-9.0,-3.0,-2.0,-4.0,-19.0,8.0,0.0,0.0,0.0,0.0,0.0,0.0,0.0,0.0,0
22.0,3.0,-3.0,10.0,2.0,0.0,-27.0,13.0,0.0,0.0,0.0,0.0,0.0,0.0,0.0,0.0,0
24.0,5.0,2.0,8.0,1.0,-1.0,-21.0,6.0,0.0,0.0,0.0,0.0,0.0,0.0,0.0,0.0,0
19.0,-7.0,-8.0,6.0,-2.0,-3.0,-15.0,6.0,0.0,0.0,0.0,0.0,0.0,0.0,0.0,0.0,0
8.0,-16.0,-21.0,-2.0,-2.0,-2.0,-25.0,9.0,0.0,0.0,0.0,0.0,0.0,0.0,0.0,0.0,0
-7.0,-20.0,-17.0,-1.0,-5.0,1.0,-14.0,6.0,0.0,0.0,0.0,0.0,0.0,0.0,0.0,0.0,0
-13.0,-13.0,-6.0,-1.0,-4.0,4.0,-6.0,5.0,0.0,0.0,0.0,0.0,0.0,0.0,0.0,0.0,0
-5.0,0.0,1.0,-4.0,-2.0,12.0,-2.0,1.0,0.0,0.0,0.0,0.0,0.0,0.0,0.0,0.0,0
-10.0,5.0,6.0,0.0,2.0,7.0,5.0,-1.0,0.0,0.0,0.0,0.0,0.0,0.0,0.0,0.0,0
-15.0,10.0,3.0,-2.0,3.0,2.0,13.0,-2.0,0.0,0.0,0.0,0.0,0.0,0.0,0.0,0.0,0
-24.0,10.0,4.0,-6.0,3.0,-2.0,20.0,-12.0,0.0,0.0,0.0,0.0,0.0,0.0,0.0,0.0,0
-32.0,6.0,14.0,-6.0,-2.0,-5.0,24.0,-20.0,0.0,0.0,0.0,0.0,0.0,0.0,0.0,0.0,0
-16.0,7.0,9.0,0.0,1.0,-1.0,19.0,-16.0,0.0,0.0,0.0,0.0,0.0,0.0,0.0,0.0,0
-9.0,2.0,6.0,8.0,4.0,-6.0,12.0,-7.0,0.0,0.0,0.0,0.0,0.0,0.0,0.0,0.0,0
-12.0,-1.0,18.0,2.0,-7.0,-9.0,10.0,-7.0,0.0,0.0,0.0,0.0,0.0,0.0,0.0,0.0,0
-5.0,-3.0,11.0,-11.0,-11.0,-13.0,9.0,-7.0,0.0,0.0,0.0,0.0,0.0,0.0,0.0,0.0,0
1.0,1.0,8.0,-13.0,-6.0,-13.0,-2.0,-10.0,0.0,0.0,0.0,0.0,0.0,0.0,0.0,0.0,0
8.0,-7.0,-6.0,-11.0,-13.0,-11.0,-6.0,-9.0,0.0,0.0,0.0,0.0,0.0,0.0,0.0,0.0,0
7.0,-8.0,-19.0,-9.0,-15.0,-5.0,-2.0,0.0,0.0,0.0,0.0,0.0,0.0,0.0,0.0,0.0,0
8.0,3.0,-16.0,-3.0,-2.0,-2.0,-12.0,-2.0,0.0,0.0,0.0,0.0,0.0,0.0,0.0,0.0,0
8.0,7.0,-11.0,-1.0,0.0,-7.0,-22.0,-2.0,0.0,0.0,0.0,0.0,0.0,0.0,0.0,0.0,0
20.0,-2.0,-17.0,2.0,6.0,-2.0,-31.0,8.0,0.0,0.0,0.0,0.0,0.0,0.0,0.0,0.0,0
18.0,-3.0,-10.0,13.0,2.0,8.0,-20.0,10.0,0.0,0.0,0.0,0.0,0.0,0.0,0.0,0.0,0
10.0,-16.0,-15.0,-1.0,-4.0,0.0,-16.0,6.0,0.0,0.0,0.0,0.0,0.0,0.0,0.0,0.0,0
10.0,-22.0,-21.0,0.0,-7.0,-4.0,-31.0,12.0,0.0,0.0,0.0,0.0,0.0,0.0,0.0,0.0,0
-3.0,-22.0,-12.0,2.0,4.0,0.0,-22.0,12.0,0.0,0.0,0.0,0.0,0.0,0.0,0.0,0.0,0
-12.0,-36.0,-19.0,-8.0,-5.0,4.0,-9.0,6.0,0.0,0.0,0.0,0.0,0.0,0.0,0.0,0.0,0
-21.0,-41.0,-15.0,-21.0,-9.0,5.0,-1.0,3.0,0.0,0.0,0.0,0.0,0.0,0.0,0.0,0.0,0
-24.0,1.0,9.0,-9.0,-2.0,5.0,14.0,-1.0,0.0,0.0,0.0,0.0,0.0,0.0,0.0,0.0,0
-3.0,37.0,16.0,-3.0,2.0,-1.0,15.0,-2.0,0.0,0.0,0.0,0.0,0.0,0.0,0.0,0.0,0
5.0,35.0,14.0,2.0,0.0,-3.0,19.0,-9.0,0.0,0.0,0.0,0.0,0.0,0.0,0.0,0.0,0
-11.0,38.0,23.0,9.0,1.0,-2.0,27.0,-18.0,0.0,0.0,0.0,0.0,0.0,0.0,0.0,0.0,0
-16.0,25.0,13.0,0.0,-5.0,-1.0,20.0,-16.0,0.0,0.0,0.0,0.0,0.0,0.0,0.0,0.0,0
-11.0,11.0,12.0,-5.0,-3.0,-8.0,9.0,-17.0,0.0,0.0,0.0,0.0,0.0,0.0,0.0,0.0,0
-17.0,-2.0,15.0,6.0,-1.0,-7.0,9.0,-15.0,0.0,0.0,0.0,0.0,0.0,0.0,0.0,0.0,0
-22.0,-28.0,15.0,6.0,4.0,-7.0,7.0,-13.0,0.0,0.0,0.0,0.0,0.0,0.0,0.0,0.0,0
-16.0,-41.0,8.0,5.0,2.0,-5.0,2.0,-4.0,0.0,0.0,0.0,0.0,0.0,0.0,0.0,0.0,0
-2.0,-34.0,-12.0,-12.0,-8.0,-6.0,2.0,5.0,0.0,0.0,0.0,0.0,0.0,0.0,0.0,0.0,0
3.0,-14.0,-29.0,-15.0,-5.0,-5.0,-5.0,-1.0,0.0,0.0,0.0,0.0,0.0,0.0,0.0,0.0,0
20.0,28.0,-15.0,-11.0,-6.0,-10.0,-16.0,-6.0,0.0,0.0,0.0,0.0,0.0,0.0,0.0,0.0,0
26.0,49.0,-13.0,-16.0,-10.0,-11.0,-22.0,3.0,0.0,0.0,0.0,0.0,0.0,0.0,0.0,0.0,0
24.0,24.0,-28.0,-11.0,-8.0,-5.0,-28.0,4.0,0.0,0.0,0.0,0.0,0.0,0.0,0.0,0.0,0
9.0,-4.0,-25.0,-9.0,-5.0,4.0,-24.0,3.0,0.0,0.0,0.0,0.0,0.0,0.0,0.0,0.0,0
13.0,-28.0,-23.0,-1.0,3.0,4.0,-18.0,7.0,0.0,0.0,0.0,0.0,0.0,0.0,0.0,0.0,0
17.0,-38.0,-19.0,6.0,5.0,0.0,-23.0,13.0,0.0,0.0,0.0,0.0,0.0,0.0,0.0,0.0,0
3.0,-38.0,-2.0,10.0,1.0,7.0,-21.0,10.0,0.0,0.0,0.0,0.0,0.0,0.0,0.0,0.0,0
-12.0,-28.0,8.0,15.0,-3.0,9.0,-12.0,4.0,0.0,0.0,0.0,0.0,0.0,0.0,0.0,0.0,0
-15.0,-8.0,5.0,13.0,0.0,6.0,-4.0,6.0,0.0,0.0,0.0,0.0,0.0,0.0,0.0,0.0,0
-12.0,10.0,9.0,-1.0,0.0,1.0,12.0,1.0,0.0,0.0,0.0,0.0,0.0,0.0,0.0,0.0,0
-17.0,8.0,10.0,-11.0,4.0,-6.0,16.0,2.0,0.0,0.0,0.0,0.0,0.0,0.0,0.0,0.0,0
-18.0,12.0,15.0,-8.0,2.0,-6.0,17.0,-8.0,0.0,0.0,0.0,0.0,0.0,0.0,0.0,0.0,0
-22.0,21.0,24.0,-4.0,0.0,-4.0,27.0,-20.0,0.0,0.0,0.0,0.0,0.0,0.0,0.0,0.0,0
-15.0,17.0,16.0,2.0,-1.0,1.0,25.0,-18.0,0.0,0.0,0.0,0.0,0.0,0.0,0.0,0.0,0
-8.0,4.0,5.0,-6.0,-5.0,-4.0,16.0,-12.0,0.0,0.0,0.0,0.0,0.0,0.0,0.0,0.0,0
-3.0,2.0,0.0,-11.0,-3.0,-4.0,13.0,-14.0,0.0,0.0,0.0,0.0,0.0,0.0,0.0,0.0,0
-11.0,-11.0,-9.0,-19.0,-6.0,-1.0,4.0,-13.0,0.0,0.0,0.0,0.0,0.0,0.0,0.0,0.0,0
-13.0,-17.0,-7.0,-6.0,-4.0,-7.0,-4.0,-9.0,0.0,0.0,0.0,0.0,0.0,0.0,0.0,0.0,0
-1.0,12.0,6.0,8.0,-1.0,-8.0,-12.0,-8.0,0.0,0.0,0.0,0.0,0.0,0.0,0.0,0.0,0
6.0,6.0,-6.0,0.0,2.0,-8.0,-7.0,2.0,0.0,0.0,0.0,0.0,0.0,0.0,0.0,0.0,0
12.0,-2.0,-14.0,-11.0,-7.0,-10.0,-7.0,1.0,0.0,0.0,0.0,0.0,0.0,0.0,0.0,0.0,0
16.0,-5.0,-18.0,-11.0,-11.0,-11.0,-21.0,0.0,0.0,0.0,0.0,0.0,0.0,0.0,0.0,0.0,0
22.0,-4.0,-20.0,-6.0,-5.0,-5.0,-29.0,7.0,0.0,0.0,0.0,0.0,0.0,0.0,0.0,0.0,0
14.0,-13.0,-21.0,-3.0,-6.0,4.0,-18.0,6.0,0.0,0.0,0.0,0.0,0.0,0.0,0.0,0.0,0
2.0,-23.0,-17.0,2.0,-2.0,5.0,-16.0,13.0,0.0,0.0,0.0,0.0,0.0,0.0,0.0,0.0,0
5.0,-27.0,-14.0,11.0,11.0,2.0,-24.0,17.0,0.0,0.0,0.0,0.0,0.0,0.0,0.0,0.0,0
-2.0,-27.0,-10.0,7.0,12.0,2.0,-22.0,16.0,0.0,0.0,0.0,0.0,0.0,0.0,0.0,0.0,0
5.0,-5.0,3.0,4.0,2.0,2.0,-24.0,3.0,0.0,0.0,0.0,0.0,0.0,0.0,0.0,0.0,0
12.0,12.0,6.0,3.0,-5.0,2.0,-7.0,-2.0,0.0,0.0,0.0,0.0,0.0,0.0,0.0,0.0,0
4.0,17.0,4.0,5.0,-2.0,6.0,15.0,-2.0,0.0,0.0,0.0,0.0,0.0,0.0,0.0,0.0,0
-15.0,14.0,12.0,-1.0,-1.0,0.0,24.0,-6.0,0.0,0.0,0.0,0.0,0.0,0.0,0.0,0.0,0
-16.0,17.0,18.0,-6.0,-1.0,-5.0,26.0,-12.0,0.0,0.0,0.0,0.0,0.0,0.0,0.0,0.0,0
-22.0,19.0,19.0,-2.0,-1.0,3.0,23.0,-16.0,0.0,0.0,0.0,0.0,0.0,0.0,0.0,0.0,0
-17.0,12.0,2.0,-17.0,-10.0,-6.0,17.0,-19.0,0.0,0.0,0.0,0.0,0.0,0.0,0.0,0.0,0
-26.0,-9.0,-10.0,-25.0,-19.0,-17.0,9.0,-18.0,0.0,0.0,0.0,0.0,0.0,0.0,0.0,0.0,0
-46.0,-37.0,-3.0,-16.0,-7.0,-13.0,10.0,-8.0,0.0,0.0,0.0,0.0,0.0,0.0,0.0,0.0,0
-45.0,-40.0,1.0,-12.0,3.0,-2.0,13.0,-4.0,0.0,0.0,0.0,0.0,0.0,0.0,0.0,0.0,0
-15.0,-19.0,-10.0,-8.0,0.0,-6.0,2.0,-5.0,0.0,0.0,0.0,0.0,0.0,0.0,0.0,0.0,0
14.0,6.0,-4.0,6.0,-9.0,-5.0,-11.0,-10.0,0.0,0.0,0.0,0.0,0.0,0.0,0.0,0.0,0
30.0,18.0,-8.0,10.0,-6.0,-6.0,-2.0,-3.0,0.0,0.0,0.0,0.0,0.0,0.0,0.0,0.0,0
27.0,24.0,-4.0,4.0,6.0,-4.0,-10.0,1.0,0.0,0.0,0.0,0.0,0.0,0.0,0.0,0.0,0
22.0,18.0,0.0,9.0,8.0,-2.0,-18.0,-3.0,0.0,0.0,0.0,0.0,0.0,0.0,0.0,0.0,0
31.0,9.0,-11.0,14.0,-5.0,0.0,-25.0,3.0,0.0,0.0,0.0,0.0,0.0,0.0,0.0,0.0,0
14.0,-10.0,-17.0,7.0,-6.0,-6.0,-27.0,7.0,0.0,0.0,0.0,0.0,0.0,0.0,0.0,0.0,0
12.0,-12.0,-11.0,2.0,-2.0,-3.0,-20.0,11.0,0.0,0.0,0.0,0.0,0.0,0.0,0.0,0.0,0
17.0,-14.0,-14.0,4.0,3.0,-2.0,-21.0,13.0,0.0,0.0,0.0,0.0,0.0,0.0,0.0,0.0,0
10.0,-14.0,-14.0,-1.0,0.0,-1.0,-19.0,8.0,0.0,0.0,0.0,0.0,0.0,0.0,0.0,0.0,0
-3.0,-16.0,-7.0,-8.0,3.0,7.0,-6.0,3.0,0.0,0.0,0.0,0.0,0.0,0.0,0.0,0.0,0
-12.0,-17.0,-10.0,-12.0,1.0,5.0,-7.0,7.0,0.0,0.0,0.0,0.0,0.0,0.0,0.0,0.0,0
-22.0,-12.0,-3.0,-14.0,-4.0,3.0,6.0,1.0,0.0,0.0,0.0,0.0,0.0,0.0,0.0,0.0,0
-32.0,-4.0,5.0,-6.0,-8.0,4.0,16.0,-11.0,0.0,0.0,0.0,0.0,0.0,0.0,0.0,0.0,0
-27.0,10.0,19.0,0.0,-4.0,5.0,19.0,-10.0,0.0,0.0,0.0,0.0,0.0,0.0,0.0,0.0,0
-32.0,14.0,23.0,-5.0,-3.0,0.0,31.0,-20.0,0.0,0.0,0.0,0.0,0.0,0.0,0.0,0.0,0
-20.0,9.0,14.0,-14.0,-11.0,-7.0,19.0,-21.0,0.0,0.0,0.0,0.0,0.0,0.0,0.0,0.0,0
-3.0,1.0,-1.0,-18.0,-10.0,-13.0,14.0,-10.0,0.0,0.0,0.0,0.0,0.0,0.0,0.0,0.0,0
-5.0,-10.0,-9.0,-16.0,-4.0,-14.0,6.0,-10.0,0.0,0.0,0.0,0.0,0.0,0.0,0.0,0.0,0
-6.0,-7.0,-15.0,-6.0,0.0,-9.0,1.0,-10.0,0.0,0.0,0.0,0.0,0.0,0.0,0.0,0.0,0
-1.0,8.0,6.0,13.0,2.0,-8.0,-6.0,-7.0,0.0,0.0,0.0,0.0,0.0,0.0,0.0,0.0,0
5.0,17.0,20.0,24.0,-3.0,-4.0,-3.0,-4.0,0.0,0.0,0.0,0.0,0.0,0.0,0.0,0.0,0
13.0,11.0,13.0,24.0,2.0,-7.0,-2.0,5.0,0.0,0.0,0.0,0.0,0.0,0.0,0.0,0.0,0
14.0,-1.0,4.0,5.0,1.0,-3.0,-4.0,5.0,0.0,0.0,0.0,0.0,0.0,0.0,0.0,0.0,0
13.0,-14.0,-19.0,-17.0,-8.0,-1.0,-16.0,2.0,0.0,0.0,0.0,0.0,0.0,0.0,0.0,0.0,0
10.0,-26.0,-37.0,-20.0,-15.0,0.0,-31.0,3.0,0.0,0.0,0.0,0.0,0.0,0.0,0.0,0.0,0
2.0,-24.0,-28.0,-13.0,-4.0,1.0,-27.0,-4.0,0.0,0.0,0.0,0.0,0.0,0.0,0.0,0.0,0
9.0,-9.0,-8.0,-6.0,3.0,-2.0,-16.0,7.0,0.0,0.0,0.0,0.0,0.0,0.0,0.0,0.0,0
20.0,2.0,-12.0,8.0,6.0,-3.0,-21.0,11.0,0.0,0.0,0.0,0.0,0.0,0.0,0.0,0.0,0
14.0,1.0,-11.0,1.0,2.0,-4.0,-19.0,17.0,0.0,0.0,0.0,0.0,0.0,0.0,0.0,0.0,0
-5.0,-3.0,-7.0,-6.0,0.0,1.0,-7.0,7.0,0.0,0.0,0.0,0.0,0.0,0.0,0.0,0.0,0
-14.0,-7.0,-8.0,1.0,-8.0,10.0,-4.0,6.0,0.0,0.0,0.0,0.0,0.0,0.0,0.0,0.0,0
-20.0,-10.0,-5.0,-2.0,-5.0,11.0,6.0,1.0,0.0,0.0,0.0,0.0,0.0,0.0,0.0,0.0,0
-12.0,-2.0,-3.0,-12.0,3.0,1.0,9.0,-9.0,0.0,0.0,0.0,0.0,0.0,0.0,0.0,0.0,0
-22.0,-2.0,11.0,-9.0,3.0,5.0,18.0,-10.0,0.0,0.0,0.0,0.0,0.0,0.0,0.0,0.0,0
-46.0,-5.0,24.0,4.0,8.0,0.0,32.0,-14.0,0.0,0.0,0.0,0.0,0.0,0.0,0.0,0.0,0
-29.0,-3.0,23.0,4.0,-6.0,-6.0,22.0,-13.0,0.0,0.0,0.0,0.0,0.0,0.0,0.0,0.0,0
-7.0,6.0,18.0,1.0,-11.0,-11.0,10.0,-13.0,0.0,0.0,0.0,0.0,0.0,0.0,0.0,0.0,0
-1.0,19.0,10.0,-1.0,-5.0,-16.0,12.0,-17.0,0.0,0.0,0.0,0.0,0.0,0.0,0.0,0.0,0
7.0,21.0,8.0,0.0,-6.0,-14.0,2.0,-13.0,0.0,0.0,0.0,0.0,0.0,0.0,0.0,0.0,0
14.0,11.0,0.0,-7.0,-9.0,-11.0,-5.0,-3.0,0.0,0.0,0.0,0.0,0.0,0.0,0.0,0.0,0
7.0,3.0,-9.0,-8.0,-6.0,-3.0,-9.0,-5.0,0.0,0.0,0.0,0.0,0.0,0.0,0.0,0.0,0
10.0,-6.0,-10.0,-2.0,-2.0,4.0,-6.0,-7.0,0.0,0.0,0.0,0.0,0.0,0.0,0.0,0.0,0
1.0,-15.0,1.0,-3.0,5.0,0.0,-5.0,-5.0,0.0,0.0,0.0,0.0,0.0,0.0,0.0,0.0,0
1.0,-16.0,-7.0,-5.0,2.0,-6.0,-16.0,5.0,0.0,0.0,0.0,0.0,0.0,0.0,0.0,0.0,0
16.0,-14.0,-26.0,-11.0,0.0,-3.0,-28.0,9.0,0.0,0.0,0.0,0.0,0.0,0.0,0.0,0.0,0
12.0,-9.0,-27.0,-4.0,-6.0,4.0,-23.0,8.0,0.0,0.0,0.0,0.0,0.0,0.0,0.0,0.0,0
4.0,-13.0,-26.0,-4.0,-8.0,-1.0,-21.0,11.0,0.0,0.0,0.0,0.0,0.0,0.0,0.0,0.0,0
10.0,-18.0,-26.0,-11.0,-4.0,-8.0,-32.0,7.0,0.0,0.0,0.0,0.0,0.0,0.0,0.0,0.0,0
3.0,-14.0,-22.0,-2.0,-5.0,-3.0,-16.0,3.0,0.0,0.0,0.0,0.0,0.0,0.0,0.0,0.0,0
-6.0,-11.0,-14.0,1.0,-7.0,1.0,-1.0,2.0,0.0,0.0,0.0,0.0,0.0,0.0,0.0,0.0,0
-6.0,-10.0,-5.0,4.0,3.0,2.0,-1.0,4.0,0.0,0.0,0.0,0.0,0.0,0.0,0.0,0.0,0
-25.0,-13.0,17.0,8.0,7.0,5.0,9.0,1.0,0.0,0.0,0.0,0.0,0.0,0.0,0.0,0.0,0
-21.0,-10.0,27.0,6.0,9.0,7.0,14.0,-5.0,0.0,0.0,0.0,0.0,0.0,0.0,0.0,0.0,0
-18.0,2.0,33.0,6.0,6.0,7.0,25.0,-13.0,0.0,0.0,0.0,0.0,0.0,0.0,0.0,0.0,0
-13.0,35.0,29.0,-5.0,0.0,-3.0,26.0,-20.0,0.0,0.0,0.0,0.0,0.0,0.0,0.0,0.0,0
-1.0,44.0,16.0,-12.0,-10.0,-8.0,16.0,-15.0,0.0,0.0,0.0,0.0,0.0,0.0,0.0,0.0,0
8.0,31.0,1.0,-10.0,-13.0,-14.0,10.0,-11.0,0.0,0.0,0.0,0.0,0.0,0.0,0.0,0.0,0
3.0,27.0,-1.0,-10.0,-2.0,-8.0,11.0,-12.0,0.0,0.0,0.0,0.0,0.0,0.0,0.0,0.0,0
-5.0,3.0,-3.0,-4.0,1.0,-6.0,8.0,-10.0,0.0,0.0,0.0,0.0,0.0,0.0,0.0,0.0,0
-6.0,-20.0,-10.0,-2.0,-5.0,-6.0,0.0,-10.0,0.0,0.0,0.0,0.0,0.0,0.0,0.0,0.0,0
-9.0,-27.0,-10.0,-3.0,-13.0,-1.0,-6.0,-4.0,0.0,0.0,0.0,0.0,0.0,0.0,0.0,0.0,0
-19.0,-27.0,0.0,8.0,-5.0,-5.0,-9.0,0.0,0.0,0.0,0.0,0.0,0.0,0.0,0.0,0.0,0
-17.0,-34.0,-4.0,-3.0,-1.0,-5.0,-7.0,2.0,0.0,0.0,0.0,0.0,0.0,0.0,0.0,0.0,0
-1.0,-31.0,-17.0,-15.0,-7.0,-9.0,-18.0,2.0,0.0,0.0,0.0,0.0,0.0,0.0,0.0,0.0,0
10.0,-23.0,-19.0,-4.0,-7.0,-1.0,-26.0,3.0,0.0,0.0,0.0,0.0,0.0,0.0,0.0,0.0,0
13.0,-4.0,-12.0,-1.0,-1.0,0.0,-18.0,12.0,0.0,0.0,0.0,0.0,0.0,0.0,0.0,0.0,0
26.0,7.0,-13.0,2.0,0.0,1.0,-24.0,2.0,0.0,0.0,0.0,0.0,0.0,0.0,0.0,0.0,0
36.0,11.0,-17.0,-2.0,-1.0,4.0,-28.0,9.0,0.0,0.0,0.0,0.0,0.0,0.0,0.0,0.0,0
24.0,13.0,-17.0,-6.0,1.0,-1.0,-21.0,7.0,0.0,0.0,0.0,0.0,0.0,0.0,0.0,0.0,0
9.0,11.0,-8.0,-3.0,0.0,-1.0,-12.0,2.0,0.0,0.0,0.0,0.0,0.0,0.0,0.0,0.0,0
-4.0,11.0,2.0,11.0,5.0,1.0,-4.0,7.0,0.0,0.0,0.0,0.0,0.0,0.0,0.0,0.0,0
-16.0,1.0,12.0,12.0,5.0,4.0,11.0,0.0,0.0,0.0,0.0,0.0,0.0,0.0,0.0,0.0,0
-24.0,-9.0,5.0,-7.0,5.0,5.0,18.0,-6.0,0.0,0.0,0.0,0.0,0.0,0.0,0.0,0.0,0
-32.0,-12.0,-1.0,-11.0,-1.0,-1.0,25.0,-8.0,0.0,0.0,0.0,0.0,0.0,0.0,0.0,0.0,0
-40.0,-15.0,20.0,-6.0,-11.0,2.0,35.0,-14.0,0.0,0.0,0.0,0.0,0.0,0.0,0.0,0.0,0
-27.0,-5.0,20.0,-5.0,-13.0,0.0,23.0,-20.0,0.0,0.0,0.0,0.0,0.0,0.0,0.0,0.0,0
-9.0,1.0,11.0,-6.0,-9.0,-6.0,8.0,-15.0,0.0,0.0,0.0,0.0,0.0,0.0,0.0,0.0,0
-7.0,7.0,7.0,-6.0,-5.0,-12.0,6.0,-5.0,0.0,0.0,0.0,0.0,0.0,0.0,0.0,0.0,0
-5.0,10.0,7.0,-6.0,-4.0,-9.0,1.0,-9.0,0.0,0.0,0.0,0.0,0.0,0.0,0.0,0.0,0
3.0,12.0,0.0,-3.0,-5.0,-9.0,-1.0,-9.0,0.0,0.0,0.0,0.0,0.0,0.0,0.0,0.0,0
2.0,3.0,-4.0,-2.0,-4.0,-11.0,-11.0,-10.0,0.0,0.0,0.0,0.0,0.0,0.0,0.0,0.0,0
7.0,7.0,-2.0,0.0,3.0,-6.0,-12.0,1.0,0.0,0.0,0.0,0.0,0.0,0.0,0.0,0.0,0
15.0,7.0,-8.0,-1.0,8.0,2.0,-7.0,3.0,0.0,0.0,0.0,0.0,0.0,0.0,0.0,0.0,0
21.0,-1.0,-11.0,-2.0,2.0,-2.0,-11.0,0.0,0.0,0.0,0.0,0.0,0.0,0.0,0.0,0.0,0
18.0,-28.0,-19.0,-2.0,-6.0,-3.0,-27.0,1.0,0.0,0.0,0.0,0.0,0.0,0.0,0.0,0.0,0
-5.0,-41.0,-24.0,-5.0,-13.0,-2.0,-24.0,8.0,0.0,0.0,0.0,0.0,0.0,0.0,0.0,0.0,0
-6.0,-35.0,-27.0,-4.0,-6.0,2.0,-17.0,8.0,0.0,0.0,0.0,0.0,0.0,0.0,0.0,0.0,0
17.0,-10.0,-24.0,-5.0,-5.0,-2.0,-30.0,13.0,0.0,0.0,0.0,0.0,0.0,0.0,0.0,0.0,0
13.0,3.0,-13.0,1.0,-1.0,-5.0,-22.0,9.0,0.0,0.0,0.0,0.0,0.0,0.0,0.0,0.0,0
-6.0,-1.0,-8.0,1.0,-4.0,-1.0,-9.0,1.0,0.0,0.0,0.0,0.0,0.0,0.0,0.0,0.0,0
-8.0,0.0,1.0,9.0,3.0,1.0,-6.0,2.0,0.0,0.0,0.0,0.0,0.0,0.0,0.0,0.0,0
-18.0,4.0,12.0,7.0,5.0,2.0,10.0,5.0,0.0,0.0,0.0,0.0,0.0,0.0,0.0,0.0,0
-23.0,10.0,15.0,3.0,8.0,4.0,19.0,-2.0,0.0,0.0,0.0,0.0,0.0,0.0,0.0,0.0,0
-19.0,7.0,23.0,-4.0,4.0,5.0,18.0,-9.0,0.0,0.0,0.0,0.0,0.0,0.0,0.0,0.0,0
-14.0,3.0,28.0,-8.0,-5.0,4.0,27.0,-15.0,0.0,0.0,0.0,0.0,0.0,0.0,0.0,0.0,0
-10.0,-13.0,9.0,-8.0,-6.0,-10.0,29.0,-17.0,0.0,0.0,0.0,0.0,0.0,0.0,0.0,0.0,0
-2.0,-10.0,0.0,-22.0,-14.0,-4.0,16.0,-9.0,0.0,0.0,0.0,0.0,0.0,0.0,0.0,0.0,0
-1.0,35.0,-1.0,-12.0,-14.0,-7.0,10.0,-9.0,0.0,0.0,0.0,0.0,0.0,0.0,0.0,0.0,0
8.0,56.0,9.0,-7.0,-4.0,-12.0,8.0,-12.0,0.0,0.0,0.0,0.0,0.0,0.0,0.0,0.0,0
6.0,43.0,4.0,-3.0,-2.0,-6.0,-1.0,-7.0,0.0,0.0,0.0,0.0,0.0,0.0,0.0,0.0,0
-18.0,-9.0,-3.0,4.0,-1.0,-9.0,-14.0,-9.0,0.0,0.0,0.0,0.0,0.0,0.0,0.0,0.0,0
-26.0,-39.0,-12.0,-5.0,-5.0,-7.0,-15.0,0.0,0.0,0.0,0.0,0.0,0.0,0.0,0.0,0.0,0
-12.0,-47.0,-15.0,2.0,2.0,-7.0,-12.0,2.0,0.0,0.0,0.0,0.0,0.0,0.0,0.0,0.0,0
3.0,-48.0,-17.0,-1.0,3.0,-2.0,-20.0,-2.0,0.0,0.0,0.0,0.0,0.0,0.0,0.0,0.0,0
18.0,-31.0,-19.0,6.0,0.0,5.0,-27.0,2.0,0.0,0.0,0.0,0.0,0.0,0.0,0.0,0.0,0
20.0,-13.0,-23.0,2.0,-6.0,2.0,-19.0,7.0,0.0,0.0,0.0,0.0,0.0,0.0,0.0,0.0,0
18.0,7.0,-19.0,-6.0,-8.0,-4.0,-17.0,2.0,0.0,0.0,0.0,0.0,0.0,0.0,0.0,0.0,0
34.0,17.0,-7.0,-3.0,-2.0,-5.0,-23.0,10.0,0.0,0.0,0.0,0.0,0.0,0.0,0.0,0.0,0
21.0,21.0,7.0,11.0,4.0,-1.0,-19.0,15.0,0.0,0.0,0.0,0.0,0.0,0.0,0.0,0.0,0
-2.0,19.0,2.0,-2.0,3.0,4.0,-7.0,12.0,0.0,0.0,0.0,0.0,0.0,0.0,0.0,0.0,0
-16.0,-8.0,-4.0,-13.0,-7.0,-3.0,-8.0,2.0,0.0,0.0,0.0,0.0,0.0,0.0,0.0,0.0,0
-27.0,-13.0,-7.0,-13.0,-5.0,-2.0,2.0,0.0,0.0,0.0,0.0,0.0,0.0,0.0,0.0,0.0,0
-24.0,-15.0,-3.0,-12.0,-5.0,-1.0,5.0,-4.0,0.0,0.0,0.0,0.0,0.0,0.0,0.0,0.0,0
-19.0,-7.0,14.0,-3.0,-6.0,0.0,22.0,-11.0,0.0,0.0,0.0,0.0,0.0,0.0,0.0,0.0,0
-29.0,1.0,30.0,7.0,1.0,-6.0,27.0,-20.0,0.0,0.0,0.0,0.0,0.0,0.0,0.0,0.0,0
-27.0,-1.0,20.0,11.0,2.0,-2.0,24.0,-20.0,0.0,0.0,0.0,0.0,0.0,0.0,0.0,0.0,0
-11.0,-10.0,-1.0,7.0,9.0,2.0,17.0,-8.0,0.0,0.0,0.0,0.0,0.0,0.0,0.0,0.0,0
5.0,9.0,3.0,-1.0,5.0,8.0,12.0,-9.0,0.0,0.0,0.0,0.0,0.0,0.0,0.0,0.0,0
9.0,44.0,8.0,-11.0,-3.0,-5.0,8.0,-15.0,0.0,0.0,0.0,0.0,0.0,0.0,0.0,0.0,0
18.0,46.0,7.0,-5.0,-8.0,-8.0,0.0,-11.0,0.0,0.0,0.0,0.0,0.0,0.0,0.0,0.0,0
10.0,17.0,-9.0,-16.0,-14.0,-14.0,-10.0,-2.0,0.0,0.0,0.0,0.0,0.0,0.0,0.0,0.0,0
11.0,-4.0,-17.0,-18.0,-9.0,-11.0,-7.0,4.0,0.0,0.0,0.0,0.0,0.0,0.0,0.0,0.0,0
0.0,-26.0,-28.0,-12.0,-10.0,-8.0,-10.0,-2.0,0.0,0.0,0.0,0.0,0.0,0.0,0.0,0.0,0
-10.0,-41.0,-30.0,-7.0,-8.0,-9.0,-22.0,1.0,0.0,0.0,0.0,0.0,0.0,0.0,0.0,0.0,0
5.0,-36.0,-22.0,-5.0,-2.0,-5.0,-31.0,1.0,0.0,0.0,0.0,0.0,0.0,0.0,0.0,0.0,0
9.0,-20.0,5.0,17.0,10.0,1.0,-14.0,13.0,0.0,0.0,0.0,0.0,0.0,0.0,0.0,0.0,0
-3.0,-30.0,-2.0,15.0,4.0,1.0,-13.0,8.0,0.0,0.0,0.0,0.0,0.0,0.0,0.0,0.0,0
-9.0,-36.0,-15.0,4.0,7.0,1.0,-29.0,12.0,0.0,0.0,0.0,0.0,0.0,0.0,0.0,0.0,0
-8.0,-26.0,-12.0,2.0,6.0,8.0,-8.0,10.0,0.0,0.0,0.0,0.0,0.0,0.0,0.0,0.0,0
6.0,4.0,-1.0,-1.0,4.0,9.0,-4.0,11.0,0.0,0.0,0.0,0.0,0.0,0.0,0.0,0.0,0
15.0,26.0,1.0,3.0,-7.0,3.0,-5.0,3.0,0.0,0.0,0.0,0.0,0.0,0.0,0.0,0.0,0
11.0,39.0,13.0,8.0,-2.0,-4.0,3.0,-8.0,0.0,0.0,0.0,0.0,0.0,0.0,0.0,0.0,0
8.0,38.0,16.0,9.0,1.0,-2.0,6.0,-7.0,0.0,0.0,0.0,0.0,0.0,0.0,0.0,0.0,0
-10.0,18.0,6.0,-13.0,-7.0,0.0,20.0,-17.0,0.0,0.0,0.0,0.0,0.0,0.0,0.0,0.0,0
-36.0,-3.0,1.0,-23.0,-12.0,1.0,34.0,-17.0,0.0,0.0,0.0,0.0,0.0,0.0,0.0,0.0,0
-32.0,-11.0,-1.0,-19.0,-7.0,-2.0,21.0,-13.0,0.0,0.0,0.0,0.0,0.0,0.0,0.0,0.0,0
-24.0,-9.0,8.0,-14.0,-6.0,-13.0,7.0,-14.0,0.0,0.0,0.0,0.0,0.0,0.0,0.0,0.0,0
-11.0,-4.0,10.0,-11.0,-8.0,-9.0,9.0,-10.0,0.0,0.0,0.0,0.0,0.0,0.0,0.0,0.0,0
1.0,7.0,12.0,-9.0,-6.0,-4.0,3.0,-2.0,0.0,0.0,0.0,0.0,0.0,0.0,0.0,0.0,0
1.0,6.0,2.0,1.0,0.0,-12.0,-3.0,-1.0,0.0,0.0,0.0,0.0,0.0,0.0,0.0,0.0,0
3.0,-4.0,-11.0,4.0,-3.0,-8.0,-10.0,-4.0,0.0,0.0,0.0,0.0,0.0,0.0,0.0,0.0,0
-2.0,-13.0,-9.0,10.0,-1.0,-3.0,-7.0,-9.0,0.0,0.0,0.0,0.0,0.0,0.0,0.0,0.0,0
2.0,-12.0,-4.0,18.0,0.0,3.0,-2.0,-13.0,0.0,0.0,0.0,0.0,0.0,0.0,0.0,0.0,0
10.0,-7.0,-5.0,4.0,1.0,0.0,-14.0,-3.0,0.0,0.0,0.0,0.0,0.0,0.0,0.0,0.0,0
16.0,-9.0,-15.0,0.0,3.0,-2.0,-28.0,3.0,0.0,0.0,0.0,0.0,0.0,0.0,0.0,0.0,0
6.0,-12.0,-22.0,-3.0,-1.0,2.0,-18.0,6.0,0.0,0.0,0.0,0.0,0.0,0.0,0.0,0.0,0
12.0,-5.0,-22.0,-2.0,-1.0,3.0,-15.0,11.0,0.0,0.0,0.0,0.0,0.0,0.0,0.0,0.0,0
12.0,-7.0,-26.0,-4.0,-4.0,-5.0,-29.0,18.0,0.0,0.0,0.0,0.0,0.0,0.0,0.0,0.0,0
13.0,-14.0,-20.0,-8.0,-4.0,0.0,-24.0,13.0,0.0,0.0,0.0,0.0,0.0,0.0,0.0,0.0,0
0.0,-6.0,-1.0,-10.0,-8.0,0.0,-9.0,6.0,0.0,0.0,0.0,0.0,0.0,0.0,0.0,0.0,0
-1.0,5.0,10.0,-7.0,-10.0,4.0,-7.0,1.0,0.0,0.0,0.0,0.0,0.0,0.0,0.0,0.0,0
-6.0,6.0,16.0,3.0,-5.0,6.0,3.0,4.0,0.0,0.0,0.0,0.0,0.0,0.0,0.0,0.0,0
-13.0,8.0,8.0,-2.0,-1.0,1.0,17.0,-6.0,0.0,0.0,0.0,0.0,0.0,0.0,0.0,0.0,0
-26.0,-1.0,1.0,-12.0,-3.0,-3.0,22.0,-14.0,0.0,0.0,0.0,0.0,0.0,0.0,0.0,0.0,0
-37.0,-3.0,9.0,-13.0,-5.0,-2.0,34.0,-22.0,0.0,0.0,0.0,0.0,0.0,0.0,0.0,0.0,0
-31.0,2.0,11.0,-5.0,1.0,-6.0,26.0,-23.0,0.0,0.0,0.0,0.0,0.0,0.0,0.0,0.0,0
-23.0,6.0,11.0,4.0,-2.0,-10.0,12.0,-11.0,0.0,0.0,0.0,0.0,0.0,0.0,0.0,0.0,0
-14.0,2.0,10.0,3.0,0.0,-7.0,5.0,-9.0,0.0,0.0,0.0,0.0,0.0,0.0,0.0,0.0,0
-3.0,1.0,4.0,1.0,-4.0,-6.0,5.0,-6.0,0.0,0.0,0.0,0.0,0.0,0.0,0.0,0.0,0
12.0,2.0,0.0,3.0,-5.0,-2.0,2.0,-5.0,0.0,0.0,0.0,0.0,0.0,0.0,0.0,0.0,0
15.0,7.0,0.0,4.0,-1.0,0.0,-8.0,4.0,0.0,0.0,0.0,0.0,0.0,0.0,0.0,0.0,0
14.0,12.0,3.0,7.0,2.0,-1.0,-11.0,3.0,0.0,0.0,0.0,0.0,0.0,0.0,0.0,0.0,0
8.0,5.0,2.0,-3.0,2.0,-4.0,-11.0,-3.0,0.0,0.0,0.0,0.0,0.0,0.0,0.0,0.0,0
11.0,-10.0,-17.0,-10.0,-3.0,-6.0,-11.0,0.0,0.0,0.0,0.0,0.0,0.0,0.0,0.0,0.0,0
16.0,-23.0,-25.0,-15.0,-5.0,-8.0,-26.0,3.0,0.0,0.0,0.0,0.0,0.0,0.0,0.0,0.0,0
5.0,-24.0,-17.0,-3.0,-3.0,-1.0,-18.0,5.0,0.0,0.0,0.0,0.0,0.0,0.0,0.0,0.0,0
5.0,-15.0,-15.0,-9.0,-2.0,1.0,-18.0,8.0,0.0,0.0,0.0,0.0,0.0,0.0,0.0,0.0,0
15.0,-10.0,-31.0,-11.0,-5.0,-3.0,-22.0,9.0,0.0,0.0,0.0,0.0,0.0,0.0,0.0,0.0,0
0.0,-14.0,-25.0,-12.0,-4.0,-1.0,-23.0,11.0,0.0,0.0,0.0,0.0,0.0,0.0,0.0,0.0,0
-4.0,-11.0,-13.0,-10.0,-6.0,1.0,-12.0,9.0,0.0,0.0,0.0,0.0,0.0,0.0,0.0,0.0,0
-6.0,-6.0,-8.0,4.0,-2.0,1.0,-2.0,1.0,0.0,0.0,0.0,0.0,0.0,0.0,0.0,0.0,0
-12.0,2.0,13.0,17.0,1.0,7.0,5.0,-4.0,0.0,0.0,0.0,0.0,0.0,0.0,0.0,0.0,0
-16.0,11.0,28.0,12.0,4.0,8.0,16.0,-12.0,0.0,0.0,0.0,0.0,0.0,0.0,0.0,0.0,0
-11.0,15.0,30.0,14.0,-1.0,-1.0,24.0,-2.0,0.0,0.0,0.0,0.0,0.0,0.0,0.0,0.0,0
-22.0,14.0,25.0,10.0,0.0,-3.0,24.0,-7.0,0.0,0.0,0.0,0.0,0.0,0.0,0.0,0.0,0
-22.0,10.0,17.0,-6.0,1.0,-8.0,25.0,-15.0,0.0,0.0,0.0,0.0,0.0,0.0,0.0,0.0,0
-17.0,6.0,1.0,-7.0,-6.0,-1.0,8.0,-17.0,0.0,0.0,0.0,0.0,0.0,0.0,0.0,0.0,0
-14.0,7.0,3.0,-10.0,-8.0,-2.0,6.0,-15.0,0.0,0.0,0.0,0.0,0.0,0.0,0.0,0.0,0
-9.0,0.0,3.0,-15.0,-4.0,-8.0,8.0,-14.0,0.0,0.0,0.0,0.0,0.0,0.0,0.0,0.0,0
-1.0,-10.0,5.0,-13.0,-7.0,-12.0,4.0,-6.0,0.0,0.0,0.0,0.0,0.0,0.0,0.0,0.0,0
5.0,-9.0,-4.0,-6.0,-9.0,-10.0,-7.0,3.0,0.0,0.0,0.0,0.0,0.0,0.0,0.0,0.0,0
-6.0,0.0,-11.0,-10.0,-8.0,-4.0,-13.0,-1.0,0.0,0.0,0.0,0.0,0.0,0.0,0.0,0.0,0
3.0,-4.0,-21.0,-15.0,-3.0,-1.0,-15.0,-8.0,0.0,0.0,0.0,0.0,0.0,0.0,0.0,0.0,0
16.0,-8.0,-32.0,-7.0,-1.0,-4.0,-23.0,-7.0,0.0,0.0,0.0,0.0,0.0,0.0,0.0,0.0,0
29.0,-28.0,-37.0,-2.0,3.0,-3.0,-24.0,13.0,0.0,0.0,0.0,0.0,0.0,0.0,0.0,0.0,0
17.0,-9.0,-25.0,-2.0,5.0,3.0,-13.0,13.0,0.0,0.0,0.0,0.0,0.0,0.0,0.0,0.0,0
10.0,6.0,-17.0,-6.0,-1.0,1.0,-11.0,5.0,0.0,0.0,0.0,0.0,0.0,0.0,0.0,0.0,0
10.0,1.0,-9.0,-6.0,-4.0,-2.0,-24.0,8.0,0.0,0.0,0.0,0.0,0.0,0.0,0.0,0.0,0
6.0,2.0,1.0,12.0,-1.0,-7.0,-22.0,15.0,0.0,0.0,0.0,0.0,0.0,0.0,0.0,0.0,0
2.0,0.0,11.0,15.0,-1.0,-2.0,-11.0,6.0,0.0,0.0,0.0,0.0,0.0,0.0,0.0,0.0,0
-9.0,-6.0,2.0,3.0,-2.0,1.0,-13.0,0.0,0.0,0.0,0.0,0.0,0.0,0.0,0.0,0.0,0
-17.0,-6.0,9.0,10.0,6.0,5.0,0.0,-10.0,0.0,0.0,0.0,0.0,0.0,0.0,0.0,0.0,0
-17.0,-7.0,33.0,22.0,13.0,8.0,15.0,-5.0,0.0,0.0,0.0,0.0,0.0,0.0,0.0,0.0,0
-32.0,-16.0,32.0,18.0,10.0,5.0,28.0,-3.0,0.0,0.0,0.0,0.0,0.0,0.0,0.0,0.0,0
-37.0,-20.0,7.0,-2.0,-6.0,2.0,36.0,-5.0,0.0,0.0,0.0,0.0,0.0,0.0,0.0,0.0,0
-24.0,-11.0,-7.0,-24.0,-7.0,-4.0,26.0,-14.0,0.0,0.0,0.0,0.0,0.0,0.0,0.0,0.0,0
-3.0,9.0,-9.0,-29.0,-12.0,-9.0,15.0,-16.0,0.0,0.0,0.0,0.0,0.0,0.0,0.0,0.0,0
-6.0,6.0,-5.0,-20.0,-12.0,-7.0,5.0,-15.0,0.0,0.0,0.0,0.0,0.0,0.0,0.0,0.0,0
-2.0,37.0,-1.0,-12.0,-7.0,-7.0,-2.0,-14.0,0.0,0.0,0.0,0.0,0.0,0.0,0.0,0.0,0
10.0,50.0,10.0,-10.0,-3.0,-13.0,-2.0,-9.0,0.0,0.0,0.0,0.0,0.0,0.0,0.0,0.0,0
9.0,40.0,12.0,3.0,-2.0,-15.0,-6.0,-2.0,0.0,0.0,0.0,0.0,0.0,0.0,0.0,0.0,0
13.0,24.0,4.0,2.0,-4.0,-13.0,-10.0,-4.0,0.0,0.0,0.0,0.0,0.0,0.0,0.0,0.0,0
16.0,-7.0,-7.0,-2.0,-5.0,-3.0,-12.0,-10.0,0.0,0.0,0.0,0.0,0.0,0.0,0.0,0.0,0
21.0,-43.0,-27.0,-7.0,-2.0,0.0,-18.0,1.0,0.0,0.0,0.0,0.0,0.0,0.0,0.0,0.0,0
12.0,-58.0,-41.0,-5.0,-5.0,1.0,-27.0,8.0,0.0,0.0,0.0,0.0,0.0,0.0,0.0,0.0,0
-7.0,-55.0,-34.0,3.0,-2.0,6.0,-16.0,5.0,0.0,0.0,0.0,0.0,0.0,0.0,0.0,0.0,0
-9.0,-40.0,-18.0,0.0,-6.0,2.0,-13.0,7.0,0.0,0.0,0.0,0.0,0.0,0.0,0.0,0.0,0
7.0,-24.0,-23.0,-2.0,-4.0,-2.0,-28.0,16.0,0.0,0.0,0.0,0.0,0.0,0.0,0.0,0.0,0
16.0,-8.0,-20.0,3.0,8.0,1.0,-20.0,17.0,0.0,0.0,0.0,0.0,0.0,0.0,0.0,0.0,0
7.0,4.0,-1.0,12.0,8.0,5.0,-11.0,4.0,0.0,0.0,0.0,0.0,0.0,0.0,0.0,0.0,0
6.0,22.0,1.0,0.0,6.0,-2.0,-6.0,7.0,0.0,0.0,0.0,0.0,0.0,0.0,0.0,0.0,0
-10.0,27.0,5.0,-10.0,1.0,-1.0,9.0,-5.0,0.0,0.0,0.0,0.0,0.0,0.0,0.0,0.0,0
-14.0,41.0,24.0,-7.0,-4.0,-7.0,15.0,-15.0,0.0,0.0,0.0,0.0,0.0,0.0,0.0,0.0,0
-10.0,33.0,30.0,5.0,-2.0,2.0,17.0,-12.0,0.0,0.0,0.0,0.0,0.0,0.0,0.0,0.0,0
-21.0,12.0,35.0,9.0,-1.0,2.0,25.0,-12.0,0.0,0.0,0.0,0.0,0.0,0.0,0.0,0.0,0
-28.0,-12.0,22.0,2.0,-6.0,-2.0,21.0,-14.0,0.0,0.0,0.0,0.0,0.0,0.0,0.0,0.0,0
-35.0,-32.0,8.0,-4.0,-7.0,-4.0,10.0,-13.0,0.0,0.0,0.0,0.0,0.0,0.0,0.0,0.0,0
-23.0,-25.0,13.0,-7.0,-7.0,-6.0,10.0,-17.0,0.0,0.0,0.0,0.0,0.0,0.0,0.0,0.0,0
-12.0,-11.0,6.0,-4.0,-8.0,-8.0,10.0,-10.0,0.0,0.0,0.0,0.0,0.0,0.0,0.0,0.0,0
1.0,-15.0,-25.0,-22.0,-14.0,-11.0,3.0,-2.0,0.0,0.0,0.0,0.0,0.0,0.0,0.0,0.0,0
17.0,7.0,-41.0,-32.0,-14.0,-7.0,-9.0,-5.0,0.0,0.0,0.0,0.0,0.0,0.0,0.0,0.0,0
12.0,8.0,-29.0,-24.0,-5.0,-8.0,-15.0,-7.0,0.0,0.0,0.0,0.0,0.0,0.0,0.0,0.0,0
10.0,3.0,-20.0,-10.0,-1.0,-10.0,-13.0,-11.0,0.0,0.0,0.0,0.0,0.0,0.0,0.0,0.0,0
16.0,1.0,-15.0,4.0,1.0,-8.0,-18.0,-3.0,0.0,0.0,0.0,0.0,0.0,0.0,0.0,0.0,0
19.0,0.0,-5.0,20.0,1.0,-5.0,-23.0,14.0,0.0,0.0,0.0,0.0,0.0,0.0,0.0,0.0,0
13.0,4.0,12.0,27.0,8.0,1.0,-15.0,13.0,0.0,0.0,0.0,0.0,0.0,0.0,0.0,0.0,0
15.0,1.0,8.0,13.0,9.0,8.0,-15.0,10.0,0.0,0.0,0.0,0.0,0.0,0.0,0.0,0.0,0
22.0,-14.0,-7.0,8.0,8.0,9.0,-21.0,14.0,0.0,0.0,0.0,0.0,0.0,0.0,0.0,0.0,0
13.0,-19.0,-10.0,-6.0,-9.0,7.0,-24.0,12.0,0.0,0.0,0.0,0.0,0.0,0.0,0.0,0.0,0
-3.0,-16.0,-12.0,-9.0,-15.0,1.0,-18.0,5.0,0.0,0.0,0.0,0.0,0.0,0.0,0.0,0.0,0
-13.0,-6.0,-10.0,-10.0,-8.0,-1.0,-6.0,-1.0,0.0,0.0,0.0,0.0,0.0,0.0,0.0,0.0,0
-21.0,-1.0,-3.0,-10.0,-6.0,-3.0,5.0,-7.0,0.0,0.0,0.0,0.0,0.0,0.0,0.0,0.0,0
-23.0,-14.0,-2.0,-9.0,-2.0,-1.0,21.0,-8.0,0.0,0.0,0.0,0.0,0.0,0.0,0.0,0.0,0
-28.0,-12.0,11.0,-6.0,1.0,1.0,29.0,-13.0,0.0,0.0,0.0,0.0,0.0,0.0,0.0,0.0,0
-27.0,9.0,21.0,0.0,2.0,-1.0,27.0,-15.0,0.0,0.0,0.0,0.0,0.0,0.0,0.0,0.0,0
-14.0,16.0,16.0,-5.0,5.0,-5.0,18.0,-12.0,0.0,0.0,0.0,0.0,0.0,0.0,0.0,0.0,0
-5.0,15.0,11.0,3.0,-1.0,-11.0,3.0,-9.0,0.0,0.0,0.0,0.0,0.0,0.0,0.0,0.0,0
-4.0,11.0,13.0,1.0,0.0,-1.0,7.0,-12.0,0.0,0.0,0.0,0.0,0.0,0.0,0.0,0.0,0
-9.0,4.0,1.0,-10.0,-8.0,-4.0,8.0,-15.0,0.0,0.0,0.0,0.0,0.0,0.0,0.0,0.0,0
-5.0,-4.0,-9.0,-13.0,-5.0,-7.0,3.0,-10.0,0.0,0.0,0.0,0.0,0.0,0.0,0.0,0.0,0
-1.0,-6.0,-9.0,-3.0,2.0,-6.0,-5.0,-2.0,0.0,0.0,0.0,0.0,0.0,0.0,0.0,0.0,0
1.0,-2.0,-1.0,4.0,4.0,-5.0,-5.0,1.0,0.0,0.0,0.0,0.0,0.0,0.0,0.0,0.0,0
5.0,-11.0,4.0,2.0,-2.0,-5.0,-6.0,2.0,0.0,0.0,0.0,0.0,0.0,0.0,0.0,0.0,0
6.0,-8.0,-11.0,6.0,-6.0,-4.0,-14.0,3.0,0.0,0.0,0.0,0.0,0.0,0.0,0.0,0.0,0
18.0,1.0,-22.0,-7.0,1.0,-5.0,-25.0,7.0,0.0,0.0,0.0,0.0,0.0,0.0,0.0,0.0,0
24.0,3.0,-11.0,-3.0,-2.0,-2.0,-25.0,2.0,0.0,0.0,0.0,0.0,0.0,0.0,0.0,0.0,0
27.0,-5.0,-7.0,0.0,-3.0,3.0,-18.0,1.0,0.0,0.0,0.0,0.0,0.0,0.0,0.0,0.0,0
24.0,-8.0,-9.0,-1.0,-8.0,4.0,-27.0,10.0,0.0,0.0,0.0,0.0,0.0,0.0,0.0,0.0,0
2.0,-21.0,-19.0,3.0,-12.0,-1.0,-21.0,17.0,0.0,0.0,0.0,0.0,0.0,0.0,0.0,0.0,0
-18.0,-27.0,-25.0,2.0,-6.0,-3.0,-10.0,13.0,0.0,0.0,0.0,0.0,0.0,0.0,0.0,0.0,0
-17.0,-20.0,-19.0,5.0,5.0,1.0,-3.0,7.0,0.0,0.0,0.0,0.0,0.0,0.0,0.0,0.0,0
-21.0,-16.0,-16.0,-11.0,7.0,-1.0,5.0,-1.0,0.0,0.0,0.0,0.0,0.0,0.0,0.0,0.0,0
-24.0,-1.0,-5.0,-18.0,-6.0,-6.0,12.0,-9.0,0.0,0.0,0.0,0.0,0.0,0.0,0.0,0.0,0
-16.0,15.0,20.0,-7.0,-1.0,1.0,17.0,-10.0,0.0,0.0,0.0,0.0,0.0,0.0,0.0,0.0,0
-25.0,22.0,33.0,2.0,5.0,4.0,32.0,-16.0,0.0,0.0,0.0,0.0,0.0,0.0,0.0,0.0,0
-19.0,24.0,32.0,-3.0,-6.0,1.0,23.0,-20.0,0.0,0.0,0.0,0.0,0.0,0.0,0.0,0.0,0
-6.0,9.0,22.0,-4.0,-6.0,-3.0,15.0,-14.0,0.0,0.0,0.0,0.0,0.0,0.0,0.0,0.0,0
-3.0,14.0,28.0,6.0,-4.0,-12.0,11.0,-7.0,0.0,0.0,0.0,0.0,0.0,0.0,0.0,0.0,0
0.0,11.0,19.0,2.0,-5.0,-12.0,3.0,-8.0,0.0,0.0,0.0,0.0,0.0,0.0,0.0,0.0,0
4.0,-3.0,-11.0,-13.0,-5.0,-7.0,-1.0,-6.0,0.0,0.0,0.0,0.0,0.0,0.0,0.0,0.0,0
9.0,-14.0,-16.0,0.0,-4.0,-6.0,-8.0,-3.0,0.0,0.0,0.0,0.0,0.0,0.0,0.0,0.0,0
-4.0,-17.0,-19.0,4.0,1.0,-5.0,-13.0,-5.0,0.0,0.0,0.0,0.0,0.0,0.0,0.0,0.0,0
-11.0,-22.0,-18.0,-1.0,5.0,-7.0,-12.0,-9.0,0.0,0.0,0.0,0.0,0.0,0.0,0.0,0.0,0
2.0,-16.0,-13.0,-3.0,4.0,-11.0,-21.0,7.0,0.0,0.0,0.0,0.0,0.0,0.0,0.0,0.0,0
28.0,-7.0,-27.0,-7.0,0.0,0.0,-25.0,9.0,0.0,0.0,0.0,0.0,0.0,0.0,0.0,0.0,0
24.0,-2.0,-23.0,-12.0,-1.0,4.0,-21.0,3.0,0.0,0.0,0.0,0.0,0.0,0.0,0.0,0.0,0
14.0,5.0,-16.0,-6.0,-6.0,-3.0,-13.0,7.0,0.0,0.0,0.0,0.0,0.0,0.0,0.0,0.0,0
8.0,-4.0,-17.0,-3.0,-9.0,-1.0,-20.0,12.0,0.0,0.0,0.0,0.0,0.0,0.0,0.0,0.0,0
3.0,-7.0,-11.0,4.0,-5.0,5.0,-14.0,18.0,0.0,0.0,0.0,0.0,0.0,0.0,0.0,0.0,0
4.0,-13.0,-5.0,-2.0,-7.0,2.0,-16.0,1.0,0.0,0.0,0.0,0.0,0.0,0.0,0.0,0.0,0
-3.0,-17.0,-2.0,0.0,-3.0,-1.0,-4.0,3.0,0.0,0.0,0.0,0.0,0.0,0.0,0.0,0.0,0
-14.0,-7.0,12.0,6.0,3.0,3.0,13.0,-1.0,0.0,0.0,0.0,0.0,0.0,0.0,0.0,0.0,0
-19.0,1.0,15.0,5.0,5.0,5.0,15.0,-5.0,0.0,0.0,0.0,0.0,0.0,0.0,0.0,0.0,0
-27.0,8.0,19.0,-1.0,3.0,2.0,20.0,-10.0,0.0,0.0,0.0,0.0,0.0,0.0,0.0,0.0,0
-42.0,3.0,15.0,-6.0,-7.0,-2.0,28.0,-18.0,0.0,0.0,0.0,0.0,0.0,0.0,0.0,0.0,0
-25.0,3.0,16.0,-8.0,-3.0,-7.0,19.0,-19.0,0.0,0.0,0.0,0.0,0.0,0.0,0.0,0.0,0
-6.0,7.0,8.0,-1.0,-5.0,-13.0,10.0,-7.0,0.0,0.0,0.0,0.0,0.0,0.0,0.0,0.0,0
3.0,19.0,4.0,-4.0,-6.0,-4.0,7.0,-9.0,0.0,0.0,0.0,0.0,0.0,0.0,0.0,0.0,0
8.0,38.0,4.0,-3.0,-1.0,-4.0,2.0,-11.0,0.0,0.0,0.0,0.0,0.0,0.0,0.0,0.0,0
18.0,25.0,-1.0,4.0,4.0,-4.0,2.0,-11.0,0.0,0.0,0.0,0.0,0.0,0.0,0.0,0.0,0
13.0,-5.0,-2.0,2.0,-2.0,-1.0,-5.0,-6.0,0.0,0.0,0.0,0.0,0.0,0.0,0.0,0.0,0
3.0,-25.0,-5.0,-5.0,-7.0,2.0,-8.0,-3.0,0.0,0.0,0.0,0.0,0.0,0.0,0.0,0.0,0
-16.0,-28.0,-10.0,-7.0,-8.0,-10.0,-6.0,-2.0,0.0,0.0,0.0,0.0,0.0,0.0,0.0,0.0,0
-13.0,-42.0,-9.0,-6.0,-7.0,-11.0,-20.0,5.0,0.0,0.0,0.0,0.0,0.0,0.0,0.0,0.0,0
1.0,-44.0,-24.0,-6.0,-2.0,-4.0,-28.0,5.0,0.0,0.0,0.0,0.0,0.0,0.0,0.0,0.0,0
0.0,-36.0,-26.0,-5.0,-1.0,1.0,-21.0,6.0,0.0,0.0,0.0,0.0,0.0,0.0,0.0,0.0,0
5.0,-21.0,-31.0,-5.0,1.0,-5.0,-13.0,9.0,0.0,0.0,0.0,0.0,0.0,0.0,0.0,0.0,0
23.0,21.0,-25.0,-6.0,-2.0,-2.0,-20.0,8.0,0.0,0.0,0.0,0.0,0.0,0.0,0.0,0.0,0
28.0,69.0,-1.0,-1.0,-7.0,1.0,-24.0,11.0,0.0,0.0,0.0,0.0,0.0,0.0,0.0,0.0,0
28.0,57.0,1.0,-3.0,-14.0,0.0,-14.0,4.0,0.0,0.0,0.0,0.0,0.0,0.0,0.0,0.0,0
7.0,11.0,-14.0,-5.0,-4.0,4.0,-5.0,1.0,0.0,0.0,0.0,0.0,0.0,0.0,0.0,0.0,0
-12.0,-16.0,2.0,-2.0,9.0,2.0,6.0,-1.0,0.0,0.0,0.0,0.0,0.0,0.0,0.0,0.0,0
-31.0,-40.0,17.0,6.0,9.0,-1.0,20.0,-8.0,0.0,0.0,0.0,0.0,0.0,0.0,0.0,0.0,0
-39.0,-50.0,22.0,3.0,7.0,5.0,31.0,-11.0,0.0,0.0,0.0,0.0,0.0,0.0,0.0,0.0,0
-32.0,-26.0,19.0,8.0,0.0,1.0,29.0,-15.0,0.0,0.0,0.0,0.0,0.0,0.0,0.0,0.0,0
-16.0,10.0,16.0,5.0,0.0,-4.0,15.0,-14.0,0.0,0.0,0.0,0.0,0.0,0.0,0.0,0.0,0
-14.0,19.0,14.0,-5.0,-3.0,-10.0,13.0,-15.0,0.0,0.0,0.0,0.0,0.0,0.0,0.0,0.0,0
-13.0,9.0,12.0,-2.0,-1.0,-7.0,12.0,-10.0,0.0,0.0,0.0,0.0,0.0,0.0,0.0,0.0,0
-6.0,3.0,-3.0,-4.0,-1.0,0.0,6.0,-6.0,0.0,0.0,0.0,0.0,0.0,0.0,0.0,0.0,0
-1.0,2.0,-10.0,-4.0,-4.0,-3.0,-4.0,-5.0,0.0,0.0,0.0,0.0,0.0,0.0,0.0,0.0,0
12.0,8.0,-12.0,-6.0,-1.0,-8.0,-8.0,-9.0,0.0,0.0,0.0,0.0,0.0,0.0,0.0,0.0,0
19.0,21.0,2.0,-2.0,-1.0,-9.0,-14.0,-8.0,0.0,0.0,0.0,0.0,0.0,0.0,0.0,0.0,0
16.0,18.0,2.0,-14.0,-4.0,-7.0,-15.0,-4.0,0.0,0.0,0.0,0.0,0.0,0.0,0.0,0.0,0
15.0,3.0,-12.0,-6.0,-12.0,-4.0,-22.0,5.0,0.0,0.0,0.0,0.0,0.0,0.0,0.0,0.0,0
12.0,-18.0,-28.0,-3.0,-12.0,-3.0,-21.0,14.0,0.0,0.0,0.0,0.0,0.0,0.0,0.0,0.0,0
3.0,-32.0,-14.0,-13.0,-1.0,-1.0,-20.0,10.0,0.0,0.0,0.0,0.0,0.0,0.0,0.0,0.0,0
5.0,-26.0,-20.0,-10.0,-7.0,-1.0,-15.0,12.0,0.0,0.0,0.0,0.0,0.0,0.0,0.0,0.0,0
10.0,-18.0,-29.0,-3.0,-3.0,-3.0,-23.0,10.0,0.0,0.0,0.0,0.0,0.0,0.0,0.0,0.0,0
4.0,-17.0,-18.0,7.0,3.0,-1.0,-23.0,9.0,0.0,0.0,0.0,0.0,0.0,0.0,0.0,0.0,0
7.0,-2.0,-4.0,9.0,1.0,9.0,-13.0,2.0,0.0,0.0,0.0,0.0,0.0,0.0,0.0,0.0,0
-3.0,0.0,0.0,7.0,7.0,8.0,-6.0,-2.0,0.0,0.0,0.0,0.0,0.0,0.0,0.0,0.0,0
-17.0,1.0,7.0,1.0,1.0,3.0,11.0,-1.0,0.0,0.0,0.0,0.0,0.0,0.0,0.0,0.0,0
-25.0,4.0,12.0,0.0,-7.0,-2.0,15.0,-5.0,0.0,0.0,0.0,0.0,0.0,0.0,0.0,0.0,0
-27.0,14.0,18.0,4.0,-3.0,-1.0,17.0,-14.0,0.0,0.0,0.0,0.0,0.0,0.0,0.0,0.0,0
-24.0,16.0,23.0,4.0,0.0,0.0,27.0,-21.0,0.0,0.0,0.0,0.0,0.0,0.0,0.0,0.0,0
-18.0,15.0,20.0,-5.0,0.0,-9.0,20.0,-17.0,0.0,0.0,0.0,0.0,0.0,0.0,0.0,0.0,0
-8.0,4.0,8.0,-7.0,0.0,-8.0,20.0,-4.0,0.0,0.0,0.0,0.0,0.0,0.0,0.0,0.0,0
-7.0,-5.0,1.0,-11.0,-7.0,-11.0,16.0,-6.0,0.0,0.0,0.0,0.0,0.0,0.0,0.0,0.0,0
-6.0,-8.0,-6.0,-19.0,-6.0,-9.0,4.0,-13.0,0.0,0.0,0.0,0.0,0.0,0.0,0.0,0.0,0
3.0,2.0,-3.0,-14.0,-8.0,-5.0,-5.0,-8.0,0.0,0.0,0.0,0.0,0.0,0.0,0.0,0.0,0
11.0,4.0,-3.0,-9.0,-8.0,-6.0,-10.0,-4.0,0.0,0.0,0.0,0.0,0.0,0.0,0.0,0.0,0
6.0,4.0,-2.0,6.0,-4.0,-6.0,-10.0,-9.0,0.0,0.0,0.0,0.0,0.0,0.0,0.0,0.0,0
5.0,-2.0,-6.0,6.0,3.0,-1.0,-9.0,-4.0,0.0,0.0,0.0,0.0,0.0,0.0,0.0,0.0,0
8.0,-27.0,-18.0,6.0,3.0,-6.0,-25.0,4.0,0.0,0.0,0.0,0.0,0.0,0.0,0.0,0.0,0
14.0,-19.0,-32.0,-11.0,-1.0,-8.0,-33.0,9.0,0.0,0.0,0.0,0.0,0.0,0.0,0.0,0.0,0
13.0,-7.0,-23.0,-5.0,-1.0,3.0,-20.0,1.0,0.0,0.0,0.0,0.0,0.0,0.0,0.0,0.0,0
4.0,-20.0,-21.0,2.0,-1.0,0.0,-9.0,5.0,0.0,0.0,0.0,0.0,0.0,0.0,0.0,0.0,0
14.0,-19.0,-24.0,-2.0,-6.0,-5.0,-20.0,13.0,0.0,0.0,0.0,0.0,0.0,0.0,0.0,0.0,0
9.0,5.0,4.0,8.0,-3.0,8.0,-16.0,13.0,0.0,0.0,0.0,0.0,0.0,0.0,0.0,0.0,0
-4.0,12.0,17.0,17.0,3.0,8.0,-9.0,4.0,0.0,0.0,0.0,0.0,0.0,0.0,0.0,0.0,0
2.0,15.0,10.0,5.0,1.0,3.0,-4.0,4.0,0.0,0.0,0.0,0.0,0.0,0.0,0.0,0.0,0
-10.0,22.0,3.0,-12.0,-6.0,-6.0,5.0,0.0,0.0,0.0,0.0,0.0,0.0,0.0,0.0,0.0,0
-31.0,0.0,-7.0,-13.0,-5.0,-6.0,16.0,-13.0,0.0,0.0,0.0,0.0,0.0,0.0,0.0,0.0,0
-27.0,-3.0,10.0,0.0,3.0,-3.0,19.0,-4.0,0.0,0.0,0.0,0.0,0.0,0.0,0.0,0.0,0
-27.0,-5.0,30.0,4.0,9.0,7.0,33.0,-2.0,0.0,0.0,0.0,0.0,0.0,0.0,0.0,0.0,0
-26.0,-22.0,21.0,-6.0,1.0,3.0,30.0,-15.0,0.0,0.0,0.0,0.0,0.0,0.0,0.0,0.0,0
-11.0,-14.0,14.0,2.0,-5.0,-2.0,9.0,-15.0,0.0,0.0,0.0,0.0,0.0,0.0,0.0,0.0,0
-4.0,-4.0,7.0,-1.0,-6.0,-5.0,8.0,-15.0,0.0,0.0,0.0,0.0,0.0,0.0,0.0,0.0,0
-1.0,9.0,-3.0,-6.0,-12.0,-12.0,1.0,-15.0,0.0,0.0,0.0,0.0,0.0,0.0,0.0,0.0,0
7.0,24.0,-10.0,-19.0,-11.0,-20.0,-5.0,-15.0,0.0,0.0,0.0,0.0,0.0,0.0,0.0,0.0,0
11.0,9.0,-16.0,-23.0,-10.0,-14.0,-9.0,-7.0,0.0,0.0,0.0,0.0,0.0,0.0,0.0,0.0,0
7.0,-9.0,-27.0,-21.0,-7.0,-10.0,-10.0,-4.0,0.0,0.0,0.0,0.0,0.0,0.0,0.0,0.0,0
-4.0,-11.0,-18.0,-2.0,-5.0,-3.0,-8.0,4.0,0.0,0.0,0.0,0.0,0.0,0.0,0.0,0.0,0
4.0,-18.0,-15.0,11.0,-4.0,4.0,-17.0,13.0,0.0,0.0,0.0,0.0,0.0,0.0,0.0,0.0,0
14.0,-20.0,-9.0,4.0,2.0,2.0,-25.0,12.0,0.0,0.0,0.0,0.0,0.0,0.0,0.0,0.0,0
7.0,-27.0,-6.0,7.0,1.0,0.0,-20.0,7.0,0.0,0.0,0.0,0.0,0.0,0.0,0.0,0.0,0
5.0,-27.0,-2.0,14.0,3.0,-2.0,-19.0,-1.0,0.0,0.0,0.0,0.0,0.0,0.0,0.0,0.0,0
13.0,-16.0,-2.0,5.0,-3.0,-6.0,-23.0,7.0,0.0,0.0,0.0,0.0,0.0,0.0,0.0,0.0,0
19.0,22.0,-12.0,-2.0,-4.0,-7.0,-22.0,14.0,0.0,0.0,0.0,0.0,0.0,0.0,0.0,0.0,0
14.0,46.0,-6.0,1.0,-1.0,6.0,-15.0,8.0,0.0,0.0,0.0,0.0,0.0,0.0,0.0,0.0,0
2.0,32.0,0.0,1.0,0.0,6.0,2.0,-5.0,0.0,0.0,0.0,0.0,0.0,0.0,0.0,0.0,0
-11.0,9.0,13.0,1.0,5.0,9.0,12.0,-3.0,0.0,0.0,0.0,0.0,0.0,0.0,0.0,0.0,0
-24.0,-18.0,3.0,-9.0,6.0,8.0,15.0,-5.0,0.0,0.0,0.0,0.0,0.0,0.0,0.0,0.0,0
-32.0,-33.0,-1.0,-18.0,4.0,1.0,19.0,-10.0,0.0,0.0,0.0,0.0,0.0,0.0,0.0,0.0,0
-34.0,-18.0,12.0,-14.0,-5.0,-4.0,24.0,-7.0,0.0,0.0,0.0,0.0,0.0,0.0,0.0,0.0,0
-18.0,-4.0,20.0,-7.0,-11.0,-10.0,18.0,-11.0,0.0,0.0,0.0,0.0,0.0,0.0,0.0,0.0,0
-5.0,1.0,15.0,-4.0,-5.0,-14.0,15.0,-13.0,0.0,0.0,0.0,0.0,0.0,0.0,0.0,0.0,0
6.0,8.0,4.0,-3.0,-3.0,-5.0,11.0,-11.0,0.0,0.0,0.0,0.0,0.0,0.0,0.0,0.0,0
-1.0,10.0,-1.0,2.0,1.0,-3.0,4.0,-10.0,0.0,0.0,0.0,0.0,0.0,0.0,0.0,0.0,0
-13.0,3.0,-1.0,-3.0,-8.0,-7.0,-3.0,-10.0,0.0,0.0,0.0,0.0,0.0,0.0,0.0,0.0,0
-15.0,-9.0,-7.0,1.0,-7.0,-9.0,-3.0,-9.0,0.0,0.0,0.0,0.0,0.0,0.0,0.0,0.0,0
-15.0,-7.0,-2.0,1.0,0.0,-3.0,-2.0,-9.0,0.0,0.0,0.0,0.0,0.0,0.0,0.0,0.0,0
-7.0,-12.0,-3.0,-2.0,0.0,-4.0,-7.0,-2.0,0.0,0.0,0.0,0.0,0.0,0.0,0.0,0.0,0
4.0,-13.0,-12.0,-3.0,-3.0,-5.0,-22.0,9.0,0.0,0.0,0.0,0.0,0.0,0.0,0.0,0.0,0
30.0,-5.0,-19.0,0.0,-1.0,-8.0,-36.0,11.0,0.0,0.0,0.0,0.0,0.0,0.0,0.0,0.0,0
29.0,4.0,-11.0,5.0,8.0,4.0,-17.0,8.0,0.0,0.0,0.0,0.0,0.0,0.0,0.0,0.0,0
27.0,11.0,-10.0,3.0,-2.0,7.0,-17.0,6.0,0.0,0.0,0.0,0.0,0.0,0.0,0.0,0.0,0
31.0,12.0,-16.0,4.0,-5.0,9.0,-27.0,4.0,0.0,0.0,0.0,0.0,0.0,0.0,0.0,0.0,0
18.0,1.0,-23.0,1.0,-8.0,-5.0,-19.0,11.0,0.0,0.0,0.0,0.0,0.0,0.0,0.0,0.0,0
0.0,-10.0,-25.0,-14.0,-14.0,-6.0,-13.0,11.0,0.0,0.0,0.0,0.0,0.0,0.0,0.0,0.0,0
-15.0,-21.0,-21.0,-27.0,-14.0,-4.0,-8.0,-2.0,0.0,0.0,0.0,0.0,0.0,0.0,0.0,0.0,0
-27.0,-6.0,8.0,-14.0,-3.0,-1.0,7.0,-2.0,0.0,0.0,0.0,0.0,0.0,0.0,0.0,0.0,0
-30.0,11.0,31.0,1.0,4.0,-2.0,17.0,-5.0,0.0,0.0,0.0,0.0,0.0,0.0,0.0,0.0,0
-32.0,-3.0,27.0,7.0,3.0,7.0,20.0,-16.0,0.0,0.0,0.0,0.0,0.0,0.0,0.0,0.0,0
-34.0,-20.0,17.0,4.0,6.0,-1.0,28.0,-14.0,0.0,0.0,0.0,0.0,0.0,0.0,0.0,0.0,0
-24.0,-17.0,6.0,-1.0,6.0,-1.0,21.0,-13.0,0.0,0.0,0.0,0.0,0.0,0.0,0.0,0.0,0
-9.0,-6.0,-1.0,-6.0,-4.0,3.0,15.0,-9.0,0.0,0.0,0.0,0.0,0.0,0.0,0.0,0.0,0
-4.0,12.0,1.0,-12.0,-12.0,-6.0,5.0,-11.0,0.0,0.0,0.0,0.0,0.0,0.0,0.0,0.0,0
8.0,11.0,-1.0,-22.0,-12.0,-8.0,7.0,-15.0,0.0,0.0,0.0,0.0,0.0,0.0,0.0,0.0,0
10.0,7.0,-9.0,-13.0,-10.0,-8.0,3.0,-13.0,0.0,0.0,0.0,0.0,0.0,0.0,0.0,0.0,0
4.0,2.0,-9.0,-4.0,-6.0,-6.0,-4.0,-4.0,0.0,0.0,0.0,0.0,0.0,0.0,0.0,0.0,0
-1.0,14.0,-4.0,7.0,-5.0,-9.0,-5.0,0.0,0.0,0.0,0.0,0.0,0.0,0.0,0.0,0.0,0
7.0,17.0,-1.0,15.0,7.0,-10.0,-11.0,-2.0,0.0,0.0,0.0,0.0,0.0,0.0,0.0,0.0,0
19.0,6.0,-1.0,26.0,7.0,-4.0,-24.0,6.0,0.0,0.0,0.0,0.0,0.0,0.0,0.0,0.0,0
34.0,5.0,9.0,23.0,9.0,4.0,-26.0,14.0,0.0,0.0,0.0,0.0,0.0,0.0,0.0,0.0,0
10.0,-12.0,9.0,10.0,1.0,6.0,-22.0,12.0,0.0,0.0,0.0,0.0,0.0,0.0,0.0,0.0,0
-1.0,-21.0,-9.0,-7.0,-10.0,-1.0,-20.0,6.0,0.0,0.0,0.0,0.0,0.0,0.0,0.0,0.0,0
1.0,-24.0,-24.0,-16.0,-13.0,-6.0,-20.0,5.0,0.0,0.0,0.0,0.0,0.0,0.0,0.0,0.0,0
5.0,-26.0,-25.0,-24.0,-7.0,-4.0,-12.0,6.0,0.0,0.0,0.0,0.0,0.0,0.0,0.0,0.0,0
5.0,-32.0,-36.0,-17.0,-12.0,0.0,-13.0,10.0,0.0,0.0,0.0,0.0,0.0,0.0,0.0,0.0,0
2.0,-20.0,-21.0,-14.0,-6.0,-7.0,-7.0,3.0,0.0,0.0,0.0,0.0,0.0,0.0,0.0,0.0,0
-17.0,-14.0,-4.0,-13.0,6.0,4.0,10.0,-5.0,0.0,0.0,0.0,0.0,0.0,0.0,0.0,0.0,0
-34.0,-6.0,4.0,-3.0,-5.0,10.0,19.0,-6.0,0.0,0.0,0.0,0.0,0.0,0.0,0.0,0.0,0
-34.0,25.0,21.0,13.0,4.0,3.0,27.0,-2.0,0.0,0.0,0.0,0.0,0.0,0.0,0.0,0.0,0
-25.0,39.0,33.0,13.0,9.0,2.0,34.0,-15.0,0.0,0.0,0.0,0.0,0.0,0.0,0.0,0.0,0
-12.0,35.0,23.0,8.0,7.0,-4.0,23.0,-20.0,0.0,0.0,0.0,0.0,0.0,0.0,0.0,0.0,0
-3.0,16.0,14.0,-3.0,-1.0,-8.0,5.0,-12.0,0.0,0.0,0.0,0.0,0.0,0.0,0.0,0.0,0
1.0,9.0,9.0,-4.0,-5.0,-6.0,1.0,-11.0,0.0,0.0,0.0,0.0,0.0,0.0,0.0,0.0,0
-5.0,-6.0,3.0,3.0,-3.0,-7.0,5.0,-8.0,0.0,0.0,0.0,0.0,0.0,0.0,0.0,0.0,0
-2.0,-10.0,-2.0,-2.0,1.0,-7.0,-2.0,-8.0,0.0,0.0,0.0,0.0,0.0,0.0,0.0,0.0,0
6.0,-12.0,-6.0,-7.0,4.0,-11.0,-8.0,-10.0,0.0,0.0,0.0,0.0,0.0,0.0,0.0,0.0,0
4.0,-17.0,-6.0,-5.0,-9.0,-12.0,-5.0,-4.0,0.0,0.0,0.0,0.0,0.0,0.0,0.0,0.0,0
-1.0,-16.0,-13.0,-9.0,-14.0,-11.0,-12.0,-5.0,0.0,0.0,0.0,0.0,0.0,0.0,0.0,0.0,0
12.0,-15.0,-20.0,-8.0,-9.0,-6.0,-20.0,1.0,0.0,0.0,0.0,0.0,0.0,0.0,0.0,0.0,0
23.0,-7.0,-22.0,-8.0,-4.0,-6.0,-25.0,11.0,0.0,0.0,0.0,0.0,0.0,0.0,0.0,0.0,0
16.0,1.0,-16.0,0.0,-2.0,0.0,-19.0,7.0,0.0,0.0,0.0,0.0,0.0,0.0,0.0,0.0,0
16.0,-3.0,-17.0,0.0,2.0,5.0,-19.0,5.0,0.0,0.0,0.0,0.0,0.0,0.0,0.0,0.0,0
3.0,-4.0,-26.0,5.0,2.0,7.0,-27.0,5.0,0.0,0.0,0.0,0.0,0.0,0.0,0.0,0.0,0
-6.0,-2.0,-10.0,12.0,1.0,11.0,-19.0,4.0,0.0,0.0,0.0,0.0,0.0,0.0,0.0,0.0,0
-5.0,4.0,10.0,16.0,3.0,-3.0,-5.0,8.0,0.0,0.0,0.0,0.0,0.0,0.0,0.0,0.0,0
-3.0,0.0,11.0,-5.0,3.0,-3.0,-4.0,13.0,0.0,0.0,0.0,0.0,0.0,0.0,0.0,0.0,0
-12.0,-9.0,-3.0,-22.0,-10.0,-4.0,0.0,3.0,0.0,0.0,0.0,0.0,0.0,0.0,0.0,0.0,0
-26.0,-17.0,-11.0,-25.0,-17.0,-2.0,15.0,-7.0,0.0,0.0,0.0,0.0,0.0,0.0,0.0,0.0,0
-29.0,-15.0,-4.0,-7.0,-8.0,-2.0,27.0,-18.0,0.0,0.0,0.0,0.0,0.0,0.0,0.0,0.0,0
-39.0,-10.0,14.0,1.0,1.0,-2.0,33.0,-20.0,0.0,0.0,0.0,0.0,0.0,0.0,0.0,0.0,0
-21.0,5.0,20.0,2.0,6.0,1.0,21.0,-18.0,0.0,0.0,0.0,0.0,0.0,0.0,0.0,0.0,0
9.0,23.0,14.0,2.0,0.0,1.0,10.0,-12.0,0.0,0.0,0.0,0.0,0.0,0.0,0.0,0.0,0
11.0,22.0,17.0,9.0,1.0,-9.0,6.0,-10.0,0.0,0.0,0.0,0.0,0.0,0.0,0.0,0.0,0
11.0,27.0,20.0,14.0,4.0,-12.0,2.0,-7.0,0.0,0.0,0.0,0.0,0.0,0.0,0.0,0.0,0
15.0,31.0,12.0,5.0,0.0,-12.0,0.0,-6.0,0.0,0.0,0.0,0.0,0.0,0.0,0.0,0.0,0
6.0,8.0,-3.0,-9.0,0.0,-4.0,-3.0,-6.0,0.0,0.0,0.0,0.0,0.0,0.0,0.0,0.0,0
-3.0,-15.0,-17.0,-15.0,-3.0,-7.0,-5.0,-2.0,0.0,0.0,0.0,0.0,0.0,0.0,0.0,0.0,0
-8.0,-33.0,-24.0,-10.0,-4.0,-6.0,-9.0,-3.0,0.0,0.0,0.0,0.0,0.0,0.0,0.0,0.0,0
-26.0,-46.0,-24.0,3.0,-10.0,-3.0,-23.0,0.0,0.0,0.0,0.0,0.0,0.0,0.0,0.0,0.0,0
-5.0,-40.0,-27.0,-1.0,-11.0,-5.0,-33.0,10.0,0.0,0.0,0.0,0.0,0.0,0.0,0.0,0.0,0
9.0,-13.0,-21.0,-11.0,-6.0,3.0,-22.0,15.0,0.0,0.0,0.0,0.0,0.0,0.0,0.0,0.0,0
13.0,-11.0,-19.0,-12.0,-6.0,2.0,-12.0,9.0,0.0,0.0,0.0,0.0,0.0,0.0,0.0,0.0,0
19.0,-16.0,-27.0,-7.0,-3.0,-3.0,-23.0,6.0,0.0,0.0,0.0,0.0,0.0,0.0,0.0,0.0,0
25.0,17.0,5.0,10.0,3.0,-5.0,-18.0,4.0,0.0,0.0,0.0,0.0,0.0,0.0,0.0,0.0,0
25.0,42.0,6.0,2.0,0.0,-1.0,-7.0,4.0,0.0,0.0,0.0,0.0,0.0,0.0,0.0,0.0,0
14.0,28.0,2.0,-4.0,-2.0,-1.0,-6.0,0.0,0.0,0.0,0.0,0.0,0.0,0.0,0.0,0.0,0
-5.0,10.0,15.0,2.0,2.0,8.0,10.0,-2.0,0.0,0.0,0.0,0.0,0.0,0.0,0.0,0.0,0
-33.0,-19.0,9.0,0.0,4.0,4.0,16.0,-6.0,0.0,0.0,0.0,0.0,0.0,0.0,0.0,0.0,0
-41.0,-24.0,6.0,0.0,1.0,-1.0,30.0,-11.0,0.0,0.0,0.0,0.0,0.0,0.0,0.0,0.0,0
-31.0,-4.0,10.0,0.0,0.0,-2.0,25.0,-12.0,0.0,0.0,0.0,0.0,0.0,0.0,0.0,0.0,0
-23.0,2.0,7.0,-1.0,-4.0,-1.0,19.0,-11.0,0.0,0.0,0.0,0.0,0.0,0.0,0.0,0.0,0
-19.0,-2.0,2.0,-4.0,-5.0,-5.0,12.0,-9.0,0.0,0.0,0.0,0.0,0.0,0.0,0.0,0.0,0
-10.0,5.0,-6.0,-11.0,-6.0,-11.0,3.0,-14.0,0.0,0.0,0.0,0.0,0.0,0.0,0.0,0.0,0
-3.0,2.0,5.0,-11.0,-4.0,-7.0,2.0,-18.0,0.0,0.0,0.0,0.0,0.0,0.0,0.0,0.0,0
10.0,0.0,5.0,-3.0,-3.0,-10.0,0.0,-14.0,0.0,0.0,0.0,0.0,0.0,0.0,0.0,0.0,0
10.0,-3.0,-1.0,6.0,-2.0,-10.0,-9.0,-6.0,0.0,0.0,0.0,0.0,0.0,0.0,0.0,0.0,0
9.0,0.0,4.0,5.0,-1.0,-3.0,-11.0,1.0,0.0,0.0,0.0,0.0,0.0,0.0,0.0,0.0,0
2.0,11.0,2.0,2.0,1.0,-2.0,-10.0,3.0,0.0,0.0,0.0,0.0,0.0,0.0,0.0,0.0,0
12.0,-2.0,-11.0,-1.0,-2.0,-1.0,-14.0,7.0,0.0,0.0,0.0,0.0,0.0,0.0,0.0,0.0,0
16.0,-12.0,-15.0,-4.0,-4.0,-2.0,-29.0,10.0,0.0,0.0,0.0,0.0,0.0,0.0,0.0,0.0,0
-2.0,-19.0,-16.0,-3.0,-1.0,0.0,-26.0,7.0,0.0,0.0,0.0,0.0,0.0,0.0,0.0,0.0,0
-5.0,-25.0,-12.0,3.0,3.0,4.0,-13.0,6.0,0.0,0.0,0.0,0.0,0.0,0.0,0.0,0.0,0
8.0,-26.0,-29.0,-11.0,-1.0,3.0,-19.0,13.0,0.0,0.0,0.0,0.0,0.0,0.0,0.0,0.0,0
7.0,-30.0,-35.0,-15.0,-10.0,-4.0,-20.0,1.0,0.0,0.0,0.0,0.0,0.0,0.0,0.0,0.0,0
9.0,-20.0,-22.0,-13.0,-4.0,-2.0,-14.0,-4.0,0.0,0.0,0.0,0.0,0.0,0.0,0.0,0.0,0
10.0,-3.0,-4.0,-3.0,-4.0,4.0,-7.0,7.0,0.0,0.0,0.0,0.0,0.0,0.0,0.0,0.0,0
-3.0,17.0,8.0,9.0,0.0,8.0,7.0,10.0,0.0,0.0,0.0,0.0,0.0,0.0,0.0,0.0,0
-17.0,32.0,15.0,10.0,-2.0,-2.0,14.0,-2.0,0.0,0.0,0.0,0.0,0.0,0.0,0.0,0.0,0
-32.0,48.0,16.0,4.0,-1.0,-2.0,21.0,-16.0,0.0,0.0,0.0,0.0,0.0,0.0,0.0,0.0,0
-35.0,52.0,25.0,1.0,-1.0,0.0,29.0,-26.0,0.0,0.0,0.0,0.0,0.0,0.0,0.0,0.0,0
-20.0,36.0,36.0,9.0,-1.0,-1.0,26.0,-12.0,0.0,0.0,0.0,0.0,0.0,0.0,0.0,0.0,0
-5.0,-2.0,31.0,-1.0,0.0,-5.0,16.0,-4.0,0.0,0.0,0.0,0.0,0.0,0.0,0.0,0.0,0
-5.0,-38.0,10.0,-13.0,-2.0,-5.0,8.0,-9.0,0.0,0.0,0.0,0.0,0.0,0.0,0.0,0.0,0
-9.0,-49.0,-13.0,-24.0,-9.0,-11.0,4.0,-16.0,0.0,0.0,0.0,0.0,0.0,0.0,0.0,0.0,0
-1.0,-51.0,-23.0,-17.0,-13.0,-14.0,-4.0,-11.0,0.0,0.0,0.0,0.0,0.0,0.0,0.0,0.0,0
0.0,-27.0,-21.0,-6.0,-4.0,-9.0,-14.0,-3.0,0.0,0.0,0.0,0.0,0.0,0.0,0.0,0.0,0
9.0,6.0,-6.0,7.0,4.0,-4.0,-11.0,3.0,0.0,0.0,0.0,0.0,0.0,0.0,0.0,0.0,0
12.0,28.0,-3.0,7.0,3.0,2.0,-4.0,3.0,0.0,0.0,0.0,0.0,0.0,0.0,0.0,0.0,0
21.0,28.0,-4.0,6.0,4.0,-1.0,-14.0,4.0,0.0,0.0,0.0,0.0,0.0,0.0,0.0,0.0,0
7.0,0.0,-17.0,0.0,-4.0,3.0,-25.0,5.0,0.0,0.0,0.0,0.0,0.0,0.0,0.0,0.0,0
-7.0,-21.0,-17.0,4.0,-1.0,5.0,-20.0,2.0,0.0,0.0,0.0,0.0,0.0,0.0,0.0,0.0,0
9.0,-12.0,-11.0,4.0,4.0,-2.0,-20.0,5.0,0.0,0.0,0.0,0.0,0.0,0.0,0.0,0.0,0
19.0,-6.0,-20.0,-6.0,-3.0,-4.0,-24.0,10.0,0.0,0.0,0.0,0.0,0.0,0.0,0.0,0.0,0
6.0,-17.0,-21.0,-8.0,-6.0,3.0,-14.0,8.0,0.0,0.0,0.0,0.0,0.0,0.0,0.0,0.0,0
-3.0,-20.0,-13.0,-7.0,-7.0,4.0,-4.0,6.0,0.0,0.0,0.0,0.0,0.0,0.0,0.0,0.0,0
-8.0,-4.0,-3.0,-1.0,-7.0,1.0,-6.0,3.0,0.0,0.0,0.0,0.0,0.0,0.0,0.0,0.0,0
-13.0,11.0,12.0,9.0,-2.0,1.0,-2.0,-2.0,0.0,0.0,0.0,0.0,0.0,0.0,0.0,0.0,0
-11.0,18.0,24.0,11.0,3.0,2.0,11.0,-1.0,0.0,0.0,0.0,0.0,0.0,0.0,0.0,0.0,0
-12.0,14.0,26.0,4.0,2.0,0.0,26.0,-7.0,0.0,0.0,0.0,0.0,0.0,0.0,0.0,0.0,0
-27.0,3.0,15.0,-5.0,-2.0,-4.0,33.0,-19.0,0.0,0.0,0.0,0.0,0.0,0.0,0.0,0.0,0
-25.0,-4.0,-6.0,-14.0,-9.0,-8.0,19.0,-20.0,0.0,0.0,0.0,0.0,0.0,0.0,0.0,0.0,0
-6.0,0.0,0.0,-12.0,-8.0,-8.0,6.0,-10.0,0.0,0.0,0.0,0.0,0.0,0.0,0.0,0.0,0
-6.0,4.0,6.0,-7.0,-3.0,-6.0,7.0,-11.0,0.0,0.0,0.0,0.0,0.0,0.0,0.0,0.0,0
-12.0,2.0,3.0,-12.0,0.0,-4.0,6.0,-15.0,0.0,0.0,0.0,0.0,0.0,0.0,0.0,0.0,0
-6.0,-4.0,-8.0,-15.0,-5.0,-7.0,0.0,-9.0,0.0,0.0,0.0,0.0,0.0,0.0,0.0,0.0,0
-4.0,-11.0,-13.0,-13.0,-15.0,-12.0,-7.0,-3.0,0.0,0.0,0.0,0.0,0.0,0.0,0.0,0.0,0
1.0,-8.0,-12.0,-3.0,-5.0,-10.0,-11.0,-3.0,0.0,0.0,0.0,0.0,0.0,0.0,0.0,0.0,0
22.0,14.0,-3.0,8.0,7.0,-1.0,-13.0,-7.0,0.0,0.0,0.0,0.0,0.0,0.0,0.0,0.0,0
22.0,8.0,-1.0,10.0,7.0,5.0,-17.0,1.0,0.0,0.0,0.0,0.0,0.0,0.0,0.0,0.0,0
18.0,-2.0,3.0,22.0,8.0,4.0,-25.0,5.0,0.0,0.0,0.0,0.0,0.0,0.0,0.0,0.0,0
12.0,-11.0,-1.0,9.0,-5.0,1.0,-17.0,10.0,0.0,0.0,0.0,0.0,0.0,0.0,0.0,0.0,0
5.0,-23.0,-20.0,-3.0,-9.0,-4.0,-19.0,10.0,0.0,0.0,0.0,0.0,0.0,0.0,0.0,0.0,0
9.0,-29.0,-24.0,-10.0,4.0,-8.0,-29.0,10.0,0.0,0.0,0.0,0.0,0.0,0.0,0.0,0.0,0
0.0,-22.0,-29.0,-19.0,-3.0,2.0,-16.0,8.0,0.0,0.0,0.0,0.0,0.0,0.0,0.0,0.0,0
-11.0,-18.0,-22.0,-13.0,-8.0,4.0,-5.0,8.0,0.0,0.0,0.0,0.0,0.0,0.0,0.0,0.0,0
-12.0,-16.0,-11.0,-3.0,-7.0,2.0,-7.0,6.0,0.0,0.0,0.0,0.0,0.0,0.0,0.0,0.0,0
-12.0,-1.0,7.0,-2.0,2.0,-2.0,11.0,-1.0,0.0,0.0,0.0,0.0,0.0,0.0,0.0,0.0,0
-11.0,18.0,19.0,2.0,3.0,4.0,17.0,-11.0,0.0,0.0,0.0,0.0,0.0,0.0,0.0,0.0,0
-20.0,29.0,27.0,11.0,5.0,4.0,19.0,-17.0,0.0,0.0,0.0,0.0,0.0,0.0,0.0,0.0,0
-25.0,27.0,31.0,10.0,5.0,2.0,31.0,-10.0,0.0,0.0,0.0,0.0,0.0,0.0,0.0,0.0,0
-16.0,18.0,25.0,1.0,-1.0,3.0,23.0,-12.0,0.0,0.0,0.0,0.0,0.0,0.0,0.0,0.0,0
-8.0,8.0,2.0,1.0,-4.0,-10.0,12.0,-10.0,0.0,0.0,0.0,0.0,0.0,0.0,0.0,0.0,0
-3.0,11.0,-2.0,-1.0,-2.0,-9.0,3.0,-12.0,0.0,0.0,0.0,0.0,0.0,0.0,0.0,0.0,0
-2.0,0.0,-4.0,-11.0,-7.0,-8.0,6.0,-15.0,0.0,0.0,0.0,0.0,0.0,0.0,0.0,0.0,0
-3.0,-10.0,-4.0,-9.0,-7.0,-1.0,-2.0,-10.0,0.0,0.0,0.0,0.0,0.0,0.0,0.0,0.0,0
7.0,-12.0,1.0,-8.0,-7.0,-5.0,-6.0,-4.0,0.0,0.0,0.0,0.0,0.0,0.0,0.0,0.0,0
8.0,-8.0,-7.0,-14.0,-4.0,-8.0,-11.0,-1.0,0.0,0.0,0.0,0.0,0.0,0.0,0.0,0.0,0
7.0,-6.0,-7.0,-4.0,1.0,-4.0,-13.0,1.0,0.0,0.0,0.0,0.0,0.0,0.0,0.0,0.0,0
-1.0,-23.0,-19.0,3.0,1.0,-3.0,-21.0,-1.0,0.0,0.0,0.0,0.0,0.0,0.0,0.0,0.0,0
-6.0,-34.0,-34.0,-3.0,-9.0,0.0,-30.0,8.0,0.0,0.0,0.0,0.0,0.0,0.0,0.0,0.0,0
-8.0,-34.0,-18.0,-12.0,-12.0,-1.0,-20.0,3.0,0.0,0.0,0.0,0.0,0.0,0.0,0.0,0.0,0
8.0,-4.0,-12.0,-2.0,-8.0,0.0,-12.0,9.0,0.0,0.0,0.0,0.0,0.0,0.0,0.0,0.0,0
22.0,5.0,-13.0,4.0,0.0,-2.0,-13.0,20.0,0.0,0.0,0.0,0.0,0.0,0.0,0.0,0.0,0
19.0,10.0,-14.0,-8.0,2.0,0.0,-19.0,9.0,0.0,0.0,0.0,0.0,0.0,0.0,0.0,0.0,0
14.0,19.0,-17.0,-6.0,1.0,1.0,-17.0,6.0,0.0,0.0,0.0,0.0,0.0,0.0,0.0,0.0,0
16.0,11.0,-22.0,-4.0,-2.0,6.0,-5.0,0.0,0.0,0.0,0.0,0.0,0.0,0.0,0.0,0.0,0
-4.0,-1.0,-6.0,2.0,-2.0,6.0,6.0,-2.0,0.0,0.0,0.0,0.0,0.0,0.0,0.0,0.0,0
-27.0,0.0,19.0,6.0,1.0,1.0,14.0,-9.0,0.0,0.0,0.0,0.0,0.0,0.0,0.0,0.0,0
-33.0,4.0,41.0,17.0,11.0,3.0,27.0,-11.0,0.0,0.0,0.0,0.0,0.0,0.0,0.0,0.0,0
-32.0,5.0,36.0,10.0,1.0,-4.0,29.0,-21.0,0.0,0.0,0.0,0.0,0.0,0.0,0.0,0.0,0
-15.0,13.0,24.0,-1.0,-11.0,-9.0,24.0,-12.0,0.0,0.0,0.0,0.0,0.0,0.0,0.0,0.0,0
-10.0,16.0,15.0,-7.0,-5.0,-8.0,12.0,-10.0,0.0,0.0,0.0,0.0,0.0,0.0,0.0,0.0,0
-13.0,0.0,5.0,-10.0,-5.0,-4.0,9.0,-9.0,0.0,0.0,0.0,0.0,0.0,0.0,0.0,0.0,0
-7.0,-23.0,-10.0,-14.0,-5.0,-9.0,4.0,-8.0,0.0,0.0,0.0,0.0,0.0,0.0,0.0,0.0,0
-12.0,-30.0,-8.0,-3.0,-3.0,-2.0,-1.0,-7.0,0.0,0.0,0.0,0.0,0.0,0.0,0.0,0.0,0
-1.0,-20.0,-3.0,3.0,0.0,-4.0,-5.0,-12.0,0.0,0.0,0.0,0.0,0.0,0.0,0.0,0.0,0
8.0,-10.0,-5.0,11.0,5.0,-5.0,-15.0,-3.0,0.0,0.0,0.0,0.0,0.0,0.0,0.0,0.0,0
8.0,-18.0,-13.0,3.0,5.0,-3.0,-14.0,0.0,0.0,0.0,0.0,0.0,0.0,0.0,0.0,0.0,0
11.0,-29.0,-27.0,-5.0,-5.0,1.0,-14.0,1.0,0.0,0.0,0.0,0.0,0.0,0.0,0.0,0.0,0
14.0,-5.0,-22.0,-11.0,-10.0,2.0,-25.0,9.0,0.0,0.0,0.0,0.0,0.0,0.0,0.0,0.0,0
18.0,45.0,5.0,-6.0,-5.0,-5.0,-17.0,11.0,0.0,0.0,0.0,0.0,0.0,0.0,0.0,0.0,0
21.0,67.0,2.0,-11.0,-4.0,-3.0,-18.0,11.0,0.0,0.0,0.0,0.0,0.0,0.0,0.0,0.0,0
18.0,38.0,-11.0,-13.0,0.0,-5.0,-23.0,11.0,0.0,0.0,0.0,0.0,0.0,0.0,0.0,0.0,0
7.0,-9.0,-25.0,-13.0,-1.0,8.0,-12.0,8.0,0.0,0.0,0.0,0.0,0.0,0.0,0.0,0.0,0
-5.0,-36.0,-31.0,-3.0,-3.0,8.0,-11.0,0.0,0.0,0.0,0.0,0.0,0.0,0.0,0.0,0.0,0
-14.0,-51.0,-15.0,11.0,-4.0,-1.0,-10.0,7.0,0.0,0.0,0.0,0.0,0.0,0.0,0.0,0.0,0
-22.0,-45.0,4.0,10.0,2.0,-2.0,5.0,-3.0,0.0,0.0,0.0,0.0,0.0,0.0,0.0,0.0,0
-21.0,-29.0,12.0,7.0,1.0,5.0,12.0,-2.0,0.0,0.0,0.0,0.0,0.0,0.0,0.0,0.0,0
-25.0,-1.0,24.0,8.0,4.0,5.0,17.0,-11.0,0.0,0.0,0.0,0.0,0.0,0.0,0.0,0.0,0
-18.0,16.0,30.0,4.0,-4.0,-3.0,29.0,-17.0,0.0,0.0,0.0,0.0,0.0,0.0,0.0,0.0,0
-3.0,25.0,22.0,-1.0,-1.0,-4.0,31.0,-18.0,0.0,0.0,0.0,0.0,0.0,0.0,0.0,0.0,0
-16.0,19.0,15.0,0.0,3.0,-9.0,14.0,-9.0,0.0,0.0,0.0,0.0,0.0,0.0,0.0,0.0,0
-24.0,6.0,8.0,-5.0,2.0,-5.0,13.0,-4.0,0.0,0.0,0.0,0.0,0.0,0.0,0.0,0.0,0
-13.0,5.0,4.0,-11.0,-4.0,-13.0,3.0,-8.0,0.0,0.0,0.0,0.0,0.0,0.0,0.0,0.0,0
3.0,13.0,1.0,-12.0,-11.0,-6.0,-4.0,-13.0,0.0,0.0,0.0,0.0,0.0,0.0,0.0,0.0,0
11.0,3.0,-14.0,-17.0,-5.0,-5.0,-7.0,-3.0,0.0,0.0,0.0,0.0,0.0,0.0,0.0,0.0,0
15.0,-4.0,-13.0,-14.0,-7.0,-5.0,-8.0,0.0,0.0,0.0,0.0,0.0,0.0,0.0,0.0,0.0,0
14.0,-3.0,-2.0,-6.0,-5.0,-3.0,-12.0,4.0,0.0,0.0,0.0,0.0,0.0,0.0,0.0,0.0,0
7.0,-5.0,-9.0,7.0,-3.0,6.0,-19.0,0.0,0.0,0.0,0.0,0.0,0.0,0.0,0.0,0.0,0
7.0,-19.0,-20.0,10.0,0.0,-5.0,-26.0,3.0,0.0,0.0,0.0,0.0,0.0,0.0,0.0,0.0,0
3.0,-26.0,-19.0,1.0,1.0,-5.0,-22.0,5.0,0.0,0.0,0.0,0.0,0.0,0.0,0.0,0.0,0
13.0,-24.0,-29.0,-12.0,1.0,-5.0,-23.0,7.0,0.0,0.0,0.0,0.0,0.0,0.0,0.0,0.0,0
14.0,-15.0,-35.0,-13.0,-3.0,2.0,-24.0,9.0,0.0,0.0,0.0,0.0,0.0,0.0,0.0,0.0,0
8.0,-3.0,-23.0,-2.0,-2.0,8.0,-10.0,7.0,0.0,0.0,0.0,0.0,0.0,0.0,0.0,0.0,0
6.0,14.0,0.0,1.0,1.0,8.0,-12.0,8.0,0.0,0.0,0.0,0.0,0.0,0.0,0.0,0.0,0
3.0,3.0,-2.0,3.0,1.0,8.0,-3.0,6.0,0.0,0.0,0.0,0.0,0.0,0.0,0.0,0.0,0
-11.0,0.0,14.0,2.0,5.0,4.0,12.0,1.0,0.0,0.0,0.0,0.0,0.0,0.0,0.0,0.0,0
-18.0,7.0,24.0,1.0,5.0,0.0,11.0,-2.0,0.0,0.0,0.0,0.0,0.0,0.0,0.0,0.0,0
-24.0,7.0,23.0,3.0,-7.0,-7.0,16.0,-17.0,0.0,0.0,0.0,0.0,0.0,0.0,0.0,0.0,0
-42.0,-15.0,25.0,0.0,-8.0,-6.0,31.0,-15.0,0.0,0.0,0.0,0.0,0.0,0.0,0.0,0.0,0
-33.0,-15.0,17.0,-1.0,-11.0,-6.0,21.0,-12.0,0.0,0.0,0.0,0.0,0.0,0.0,0.0,0.0,0
-16.0,-1.0,10.0,-10.0,-6.0,-5.0,12.0,-8.0,0.0,0.0,0.0,0.0,0.0,0.0,0.0,0.0,0
-3.0,21.0,5.0,-2.0,-1.0,-9.0,12.0,-11.0,0.0,0.0,0.0,0.0,0.0,0.0,0.0,0.0,0
4.0,25.0,2.0,5.0,-5.0,-3.0,9.0,-7.0,0.0,0.0,0.0,0.0,0.0,0.0,0.0,0.0,0
11.0,12.0,-1.0,-3.0,-4.0,-9.0,1.0,-8.0,0.0,0.0,0.0,0.0,0.0,0.0,0.0,0.0,0
11.0,-10.0,0.0,-6.0,-3.0,-4.0,-7.0,-5.0,0.0,0.0,0.0,0.0,0.0,0.0,0.0,0.0,0
1.0,-15.0,3.0,1.0,-1.0,0.0,-10.0,-6.0,0.0,0.0,0.0,0.0,0.0,0.0,0.0,0.0,0
-2.0,-11.0,3.0,-2.0,4.0,-5.0,-12.0,-4.0,0.0,0.0,0.0,0.0,0.0,0.0,0.0,0.0,0
9.0,-1.0,-12.0,-12.0,-6.0,-4.0,-20.0,4.0,0.0,0.0,0.0,0.0,0.0,0.0,0.0,0.0,0
24.0,-3.0,-25.0,-18.0,-5.0,-6.0,-27.0,6.0,0.0,0.0,0.0,0.0,0.0,0.0,0.0,0.0,0
15.0,-4.0,-35.0,-13.0,-8.0,-7.0,-22.0,8.0,0.0,0.0,0.0,0.0,0.0,0.0,0.0,0.0,0
5.0,-12.0,-50.0,-17.0,-14.0,-7.0,-18.0,8.0,0.0,0.0,0.0,0.0,0.0,0.0,0.0,0.0,0
4.0,-30.0,-48.0,-19.0,-5.0,-5.0,-20.0,8.0,0.0,0.0,0.0,0.0,0.0,0.0,0.0,0.0,0
12.0,-20.0,-25.0,-3.0,0.0,7.0,-17.0,7.0,0.0,0.0,0.0,0.0,0.0,0.0,0.0,0.0,0
7.0,-16.0,4.0,10.0,7.0,3.0,-9.0,9.0,0.0,0.0,0.0,0.0,0.0,0.0,0.0,0.0,0
-5.0,-13.0,2.0,1.0,-3.0,4.0,-5.0,13.0,0.0,0.0,0.0,0.0,0.0,0.0,0.0,0.0,0
-29.0,-11.0,19.0,3.0,-2.0,3.0,6.0,3.0,0.0,0.0,0.0,0.0,0.0,0.0,0.0,0.0,0
-36.0,0.0,33.0,13.0,5.0,5.0,12.0,-9.0,0.0,0.0,0.0,0.0,0.0,0.0,0.0,0.0,0
-19.0,23.0,44.0,26.0,7.0,2.0,24.0,-13.0,0.0,0.0,0.0,0.0,0.0,0.0,0.0,0.0,0
-10.0,44.0,50.0,22.0,8.0,0.0,31.0,-20.0,0.0,0.0,0.0,0.0,0.0,0.0,0.0,0.0,0
3.0,38.0,39.0,11.0,7.0,-4.0,15.0,-20.0,0.0,0.0,0.0,0.0,0.0,0.0,0.0,0.0,0
-1.0,13.0,10.0,-5.0,2.0,-7.0,9.0,-9.0,0.0,0.0,0.0,0.0,0.0,0.0,0.0,0.0,0
-4.0,0.0,-14.0,-24.0,-15.0,-11.0,8.0,-13.0,0.0,0.0,0.0,0.0,0.0,0.0,0.0,0.0,0
-15.0,-10.0,-22.0,-27.0,-20.0,-13.0,5.0,-11.0,0.0,0.0,0.0,0.0,0.0,0.0,0.0,0.0,0
-23.0,-29.0,-31.0,-25.0,-13.0,-8.0,3.0,-10.0,0.0,0.0,0.0,0.0,0.0,0.0,0.0,0.0,0
-15.0,-24.0,-28.0,-8.0,-2.0,-5.0,-5.0,-5.0,0.0,0.0,0.0,0.0,0.0,0.0,0.0,0.0,0
0.0,-13.0,-14.0,-3.0,-1.0,-4.0,-8.0,1.0,0.0,0.0,0.0,0.0,0.0,0.0,0.0,0.0,0
7.0,3.0,-1.0,2.0,-6.0,1.0,-8.0,-1.0,0.0,0.0,0.0,0.0,0.0,0.0,0.0,0.0,0
21.0,7.0,3.0,6.0,-4.0,0.0,-19.0,-2.0,0.0,0.0,0.0,0.0,0.0,0.0,0.0,0.0,0
29.0,0.0,-6.0,6.0,-7.0,-1.0,-37.0,2.0,0.0,0.0,0.0,0.0,0.0,0.0,0.0,0.0,0
21.0,-1.0,-6.0,2.0,-2.0,0.0,-23.0,3.0,0.0,0.0,0.0,0.0,0.0,0.0,0.0,0.0,0
15.0,-9.0,-9.0,0.0,0.0,-2.0,-19.0,11.0,0.0,0.0,0.0,0.0,0.0,0.0,0.0,0.0,0
10.0,-16.0,-17.0,-7.0,5.0,-4.0,-25.0,20.0,0.0,0.0,0.0,0.0,0.0,0.0,0.0,0.0,0
8.0,-14.0,-17.0,-7.0,3.0,4.0,-14.0,11.0,0.0,0.0,0.0,0.0,0.0,0.0,0.0,0.0,0
-4.0,-7.0,-15.0,-4.0,-2.0,1.0,-7.0,4.0,0.0,0.0,0.0,0.0,0.0,0.0,0.0,0.0,0
-9.0,-4.0,-16.0,-3.0,-4.0,1.0,-5.0,5.0,0.0,0.0,0.0,0.0,0.0,0.0,0.0,0.0,0
-10.0,-2.0,8.0,1.0,-2.0,8.0,6.0,-1.0,0.0,0.0,0.0,0.0,0.0,0.0,0.0,0.0,0
-17.0,6.0,15.0,-2.0,-2.0,0.0,13.0,-6.0,0.0,0.0,0.0,0.0,0.0,0.0,0.0,0.0,0
-30.0,18.0,16.0,4.0,-9.0,-1.0,24.0,-9.0,0.0,0.0,0.0,0.0,0.0,0.0,0.0,0.0,0
-34.0,9.0,18.0,2.0,-3.0,-7.0,29.0,-23.0,0.0,0.0,0.0,0.0,0.0,0.0,0.0,0.0,0
-21.0,4.0,19.0,4.0,0.0,-5.0,23.0,-19.0,0.0,0.0,0.0,0.0,0.0,0.0,0.0,0.0,0
-1.0,1.0,9.0,0.0,-4.0,-4.0,13.0,-10.0,0.0,0.0,0.0,0.0,0.0,0.0,0.0,0.0,0
2.0,-6.0,10.0,-7.0,-3.0,-3.0,12.0,-11.0,0.0,0.0,0.0,0.0,0.0,0.0,0.0,0.0,0
-5.0,-6.0,-5.0,-22.0,-9.0,-2.0,9.0,-3.0,0.0,0.0,0.0,0.0,0.0,0.0,0.0,0.0,0
-6.0,-18.0,-10.0,-16.0,-6.0,-7.0,1.0,-11.0,0.0,0.0,0.0,0.0,0.0,0.0,0.0,0.0,0
-13.0,-24.0,-13.0,-4.0,4.0,-8.0,-11.0,-9.0,0.0,0.0,0.0,0.0,0.0,0.0,0.0,0.0,0
-9.0,-13.0,-8.0,2.0,6.0,-10.0,-9.0,0.0,0.0,0.0,0.0,0.0,0.0,0.0,0.0,0.0,0
6.0,22.0,0.0,13.0,5.0,-1.0,-6.0,3.0,0.0,0.0,0.0,0.0,0.0,0.0,0.0,0.0,0
30.0,42.0,6.0,11.0,5.0,4.0,-17.0,4.0,0.0,0.0,0.0,0.0,0.0,0.0,0.0,0.0,0
33.0,29.0,-16.0,2.0,-7.0,-5.0,-26.0,10.0,0.0,0.0,0.0,0.0,0.0,0.0,0.0,0.0,0
20.0,-5.0,-20.0,-8.0,-8.0,-10.0,-16.0,8.0,0.0,0.0,0.0,0.0,0.0,0.0,0.0,0.0,0
7.0,-26.0,-23.0,-12.0,-13.0,-6.0,-20.0,1.0,0.0,0.0,0.0,0.0,0.0,0.0,0.0,0.0,0
10.0,-35.0,-27.0,-9.0,-6.0,-1.0,-25.0,6.0,0.0,0.0,0.0,0.0,0.0,0.0,0.0,0.0,0
-4.0,-40.0,-19.0,-7.0,-1.0,5.0,-23.0,7.0,0.0,0.0,0.0,0.0,0.0,0.0,0.0,0.0,0
-8.0,-31.0,-6.0,-2.0,2.0,4.0,-9.0,7.0,0.0,0.0,0.0,0.0,0.0,0.0,0.0,0.0,0
-5.0,-18.0,0.0,7.0,7.0,7.0,-4.0,6.0,0.0,0.0,0.0,0.0,0.0,0.0,0.0,0.0,0
-13.0,2.0,6.0,4.0,2.0,4.0,9.0,1.0,0.0,0.0,0.0,0.0,0.0,0.0,0.0,0.0,0
-20.0,10.0,4.0,-1.0,-5.0,4.0,17.0,-4.0,0.0,0.0,0.0,0.0,0.0,0.0,0.0,0.0,0
-21.0,21.0,21.0,0.0,-5.0,2.0,20.0,-7.0,0.0,0.0,0.0,0.0,0.0,0.0,0.0,0.0,0
-23.0,29.0,27.0,-1.0,0.0,2.0,33.0,-21.0,0.0,0.0,0.0,0.0,0.0,0.0,0.0,0.0,0
-19.0,19.0,22.0,-4.0,4.0,-4.0,20.0,-16.0,0.0,0.0,0.0,0.0,0.0,0.0,0.0,0.0,0
-12.0,11.0,12.0,-8.0,-1.0,-10.0,5.0,-10.0,0.0,0.0,0.0,0.0,0.0,0.0,0.0,0.0,0
-1.0,12.0,-1.0,-14.0,-4.0,-10.0,4.0,-9.0,0.0,0.0,0.0,0.0,0.0,0.0,0.0,0.0,0
-3.0,-12.0,-12.0,-17.0,-7.0,-4.0,12.0,-9.0,0.0,0.0,0.0,0.0,0.0,0.0,0.0,0.0,0
-10.0,-25.0,-14.0,-7.0,-11.0,-9.0,5.0,-11.0,0.0,0.0,0.0,0.0,0.0,0.0,0.0,0.0,0
-6.0,-23.0,-11.0,-9.0,-4.0,-10.0,-2.0,-7.0,0.0,0.0,0.0,0.0,0.0,0.0,0.0,0.0,0
8.0,-4.0,1.0,1.0,-4.0,-8.0,-13.0,-4.0,0.0,0.0,0.0,0.0,0.0,0.0,0.0,0.0,0
9.0,15.0,8.0,14.0,-2.0,-5.0,-13.0,-3.0,0.0,0.0,0.0,0.0,0.0,0.0,0.0,0.0,0
12.0,15.0,-2.0,10.0,-5.0,-5.0,-17.0,0.0,0.0,0.0,0.0,0.0,0.0,0.0,0.0,0.0,0
24.0,2.0,-17.0,1.0,-2.0,0.0,-27.0,6.0,0.0,0.0,0.0,0.0,0.0,0.0,0.0,0.0,0
17.0,-7.0,-15.0,-8.0,-5.0,6.0,-24.0,14.0,0.0,0.0,0.0,0.0,0.0,0.0,0.0,0.0,0
10.0,-16.0,-18.0,-4.0,-7.0,6.0,-19.0,10.0,0.0,0.0,0.0,0.0,0.0,0.0,0.0,0.0,0
8.0,-27.0,-20.0,0.0,-6.0,-4.0,-24.0,8.0,0.0,0.0,0.0,0.0,0.0,0.0,0.0,0.0,0
3.0,-24.0,-16.0,2.0,5.0,0.0,-13.0,6.0,0.0,0.0,0.0,0.0,0.0,0.0,0.0,0.0,0
-8.0,-27.0,-19.0,-11.0,-1.0,-1.0,-8.0,2.0,0.0,0.0,0.0,0.0,0.0,0.0,0.0,0.0,0
-7.0,-22.0,-8.0,0.0,0.0,-2.0,-4.0,-1.0,0.0,0.0,0.0,0.0,0.0,0.0,0.0,0.0,0
-11.0,0.0,-4.0,-1.0,-8.0,3.0,3.0,-4.0,0.0,0.0,0.0,0.0,0.0,0.0,0.0,0.0,0
-25.0,-4.0,-3.0,-16.0,-4.0,5.0,13.0,-3.0,0.0,0.0,0.0,0.0,0.0,0.0,0.0,0.0,0
-24.0,20.0,24.0,-4.0,1.0,-6.0,22.0,-1.0,0.0,0.0,0.0,0.0,0.0,0.0,0.0,0.0,0
-11.0,69.0,49.0,5.0,4.0,-4.0,31.0,-11.0,0.0,0.0,0.0,0.0,0.0,0.0,0.0,0.0,0
-2.0,72.0,20.0,-10.0,-2.0,-7.0,22.0,-18.0,0.0,0.0,0.0,0.0,0.0,0.0,0.0,0.0,0
9.0,27.0,-7.0,-17.0,-4.0,-6.0,12.0,-19.0,0.0,0.0,0.0,0.0,0.0,0.0,0.0,0.0,0
-9.0,-9.0,5.0,1.0,0.0,-2.0,11.0,-14.0,0.0,0.0,0.0,0.0,0.0,0.0,0.0,0.0,0
-18.0,-30.0,-1.0,6.0,-1.0,-4.0,6.0,-9.0,0.0,0.0,0.0,0.0,0.0,0.0,0.0,0.0,0
-24.0,-44.0,-7.0,12.0,0.0,-4.0,4.0,-5.0,0.0,0.0,0.0,0.0,0.0,0.0,0.0,0.0,0
-17.0,-40.0,-1.0,17.0,0.0,-3.0,-9.0,-7.0,0.0,0.0,0.0,0.0,0.0,0.0,0.0,0.0,0
-12.0,-30.0,-4.0,6.0,-1.0,-6.0,-8.0,-2.0,0.0,0.0,0.0,0.0,0.0,0.0,0.0,0.0,0
-5.0,-20.0,-1.0,-4.0,2.0,-3.0,-7.0,-2.0,0.0,0.0,0.0,0.0,0.0,0.0,0.0,0.0,0
14.0,7.0,-8.0,-9.0,-2.0,-8.0,-23.0,7.0,0.0,0.0,0.0,0.0,0.0,0.0,0.0,0.0,0
36.0,22.0,-18.0,-9.0,-5.0,-7.0,-23.0,11.0,0.0,0.0,0.0,0.0,0.0,0.0,0.0,0.0,0
38.0,21.0,-14.0,-3.0,-7.0,-7.0,-18.0,5.0,0.0,0.0,0.0,0.0,0.0,0.0,0.0,0.0,0
26.0,5.0,-19.0,-10.0,-10.0,-1.0,-22.0,-1.0,0.0,0.0,0.0,0.0,0.0,0.0,0.0,0.0,0
17.0,-2.0,-31.0,-18.0,-16.0,-1.0,-31.0,3.0,0.0,0.0,0.0,0.0,0.0,0.0,0.0,0.0,0
3.0,-10.0,-22.0,-7.0,-7.0,7.0,-24.0,12.0,0.0,0.0,0.0,0.0,0.0,0.0,0.0,0.0,0
-2.0,-11.0,-3.0,-6.0,0.0,10.0,-10.0,10.0,0.0,0.0,0.0,0.0,0.0,0.0,0.0,0.0,0
-1.0,-5.0,3.0,6.0,6.0,11.0,0.0,15.0,0.0,0.0,0.0,0.0,0.0,0.0,0.0,0.0,0
-23.0,-7.0,2.0,3.0,6.0,9.0,7.0,-1.0,0.0,0.0,0.0,0.0,0.0,0.0,0.0,0.0,0
-42.0,-18.0,3.0,1.0,4.0,1.0,12.0,-9.0,0.0,0.0,0.0,0.0,0.0,0.0,0.0,0.0,0
-46.0,-13.0,16.0,0.0,1.0,-7.0,23.0,-12.0,0.0,0.0,0.0,0.0,0.0,0.0,0.0,0.0,0
-37.0,7.0,21.0,3.0,-10.0,-14.0,32.0,-17.0,0.0,0.0,0.0,0.0,0.0,0.0,0.0,0.0,0
-11.0,9.0,14.0,-5.0,-9.0,-14.0,21.0,-18.0,0.0,0.0,0.0,0.0,0.0,0.0,0.0,0.0,0
-3.0,13.0,11.0,-1.0,-5.0,-6.0,15.0,-10.0,0.0,0.0,0.0,0.0,0.0,0.0,0.0,0.0,0
4.0,15.0,8.0,-4.0,-2.0,-7.0,6.0,-8.0,0.0,0.0,0.0,0.0,0.0,0.0,0.0,0.0,0
2.0,16.0,5.0,-6.0,0.0,-2.0,1.0,-7.0,0.0,0.0,0.0,0.0,0.0,0.0,0.0,0.0,0
10.0,1.0,-3.0,5.0,-4.0,-2.0,-5.0,-5.0,0.0,0.0,0.0,0.0,0.0,0.0,0.0,0.0,0
3.0,-4.0,-6.0,4.0,0.0,-5.0,-9.0,-5.0,0.0,0.0,0.0,0.0,0.0,0.0,0.0,0.0,0
-1.0,4.0,1.0,1.0,2.0,-2.0,-8.0,1.0,0.0,0.0,0.0,0.0,0.0,0.0,0.0,0.0,0
13.0,5.0,-3.0,-10.0,0.0,-7.0,-8.0,-4.0,0.0,0.0,0.0,0.0,0.0,0.0,0.0,0.0,0
23.0,2.0,-15.0,-8.0,-6.0,-5.0,-19.0,0.0,0.0,0.0,0.0,0.0,0.0,0.0,0.0,0.0,0
22.0,-13.0,-15.0,-5.0,-8.0,0.0,-24.0,9.0,0.0,0.0,0.0,0.0,0.0,0.0,0.0,0.0,0
8.0,-15.0,-19.0,-13.0,-4.0,-5.0,-20.0,9.0,0.0,0.0,0.0,0.0,0.0,0.0,0.0,0.0,0
-1.0,-15.0,-27.0,-8.0,-4.0,-7.0,-17.0,2.0,0.0,0.0,0.0,0.0,0.0,0.0,0.0,0.0,0
0.0,-27.0,-27.0,0.0,-12.0,-3.0,-18.0,6.0,0.0,0.0,0.0,0.0,0.0,0.0,0.0,0.0,0
-10.0,-31.0,-9.0,0.0,-8.0,4.0,-17.0,13.0,0.0,0.0,0.0,0.0,0.0,0.0,0.0,0.0,0
-21.0,-18.0,-2.0,2.0,4.0,4.0,-12.0,14.0,0.0,0.0,0.0,0.0,0.0,0.0,0.0,0.0,0
-13.0,-14.0,-12.0,2.0,1.0,4.0,-6.0,7.0,0.0,0.0,0.0,0.0,0.0,0.0,0.0,0.0,0
-8.0,-2.0,-10.0,-5.0,5.0,10.0,6.0,-3.0,0.0,0.0,0.0,0.0,0.0,0.0,0.0,0.0,0
-1.0,15.0,9.0,0.0,1.0,8.0,10.0,-11.0,0.0,0.0,0.0,0.0,0.0,0.0,0.0,0.0,0
-1.0,19.0,27.0,4.0,-3.0,-2.0,17.0,-11.0,0.0,0.0,0.0,0.0,0.0,0.0,0.0,0.0,0
-12.0,27.0,36.0,11.0,-1.0,-10.0,27.0,-20.0,0.0,0.0,0.0,0.0,0.0,0.0,0.0,0.0,0
-15.0,17.0,26.0,6.0,-6.0,-10.0,21.0,-22.0,0.0,0.0,0.0,0.0,0.0,0.0,0.0,0.0,0
-6.0,13.0,14.0,-2.0,-5.0,-3.0,12.0,-16.0,0.0,0.0,0.0,0.0,0.0,0.0,0.0,0.0,0
3.0,4.0,5.0,-11.0,-5.0,-4.0,16.0,-10.0,0.0,0.0,0.0,0.0,0.0,0.0,0.0,0.0,0
-12.0,-3.0,-1.0,-7.0,-1.0,-4.0,15.0,-7.0,0.0,0.0,0.0,0.0,0.0,0.0,0.0,0.0,0
-16.0,-6.0,8.0,12.0,7.0,0.0,6.0,2.0,0.0,0.0,0.0,0.0,0.0,0.0,0.0,0.0,0
-5.0,-11.0,-3.0,0.0,8.0,-9.0,-9.0,1.0,0.0,0.0,0.0,0.0,0.0,0.0,0.0,0.0,0
-3.0,-13.0,-22.0,-15.0,-6.0,-7.0,-9.0,-8.0,0.0,0.0,0.0,0.0,0.0,0.0,0.0,0.0,0
4.0,-14.0,-22.0,-26.0,-12.0,-3.0,-13.0,-6.0,0.0,0.0,0.0,0.0,0.0,0.0,0.0,0.0,0
13.0,-11.0,-20.0,-14.0,-13.0,-12.0,-20.0,2.0,0.0,0.0,0.0,0.0,0.0,0.0,0.0,0.0,0
24.0,-11.0,-26.0,-6.0,-7.0,-7.0,-33.0,7.0,0.0,0.0,0.0,0.0,0.0,0.0,0.0,0.0,0
19.0,-7.0,-17.0,1.0,-3.0,-2.0,-23.0,10.0,0.0,0.0,0.0,0.0,0.0,0.0,0.0,0.0,0
11.0,-5.0,-11.0,2.0,-1.0,-4.0,-24.0,6.0,0.0,0.0,0.0,0.0,0.0,0.0,0.0,0.0,0
15.0,1.0,-12.0,3.0,-6.0,0.0,-22.0,10.0,0.0,0.0,0.0,0.0,0.0,0.0,0.0,0.0,0
8.0,8.0,-2.0,0.0,-4.0,2.0,-22.0,4.0,0.0,0.0,0.0,0.0,0.0,0.0,0.0,0.0,0
-8.0,-15.0,-3.0,-3.0,1.0,2.0,-10.0,3.0,0.0,0.0,0.0,0.0,0.0,0.0,0.0,0.0,0
-13.0,-29.0,-9.0,-2.0,0.0,2.0,-6.0,4.0,0.0,0.0,0.0,0.0,0.0,0.0,0.0,0.0,0
-23.0,-19.0,-3.0,0.0,4.0,8.0,11.0,-1.0,0.0,0.0,0.0,0.0,0.0,0.0,0.0,0.0,0
-24.0,0.0,4.0,-2.0,3.0,3.0,17.0,-5.0,0.0,0.0,0.0,0.0,0.0,0.0,0.0,0.0,0
-19.0,11.0,8.0,5.0,6.0,-1.0,28.0,-13.0,0.0,0.0,0.0,0.0,0.0,0.0,0.0,0.0,0
-17.0,12.0,11.0,12.0,-2.0,-3.0,28.0,-14.0,0.0,0.0,0.0,0.0,0.0,0.0,0.0,0.0,0
-11.0,12.0,7.0,6.0,-4.0,-9.0,23.0,-15.0,0.0,0.0,0.0,0.0,0.0,0.0,0.0,0.0,0
-7.0,9.0,9.0,0.0,-4.0,-6.0,12.0,-16.0,0.0,0.0,0.0,0.0,0.0,0.0,0.0,0.0,0
-7.0,34.0,20.0,-9.0,-1.0,-4.0,8.0,-11.0,0.0,0.0,0.0,0.0,0.0,0.0,0.0,0.0,0
-2.0,36.0,28.0,-4.0,5.0,-5.0,3.0,-7.0,0.0,0.0,0.0,0.0,0.0,0.0,0.0,0.0,0
2.0,16.0,15.0,-3.0,-1.0,-10.0,-3.0,-11.0,0.0,0.0,0.0,0.0,0.0,0.0,0.0,0.0,0
1.0,-9.0,-7.0,-9.0,-7.0,-6.0,-13.0,4.0,0.0,0.0,0.0,0.0,0.0,0.0,0.0,0.0,0
1.0,-21.0,-10.0,-13.0,-13.0,-3.0,-9.0,1.0,0.0,0.0,0.0,0.0,0.0,0.0,0.0,0.0,0
0.0,-27.0,-7.0,-7.0,-8.0,-6.0,-6.0,-6.0,0.0,0.0,0.0,0.0,0.0,0.0,0.0,0.0,0
11.0,-30.0,-18.0,-10.0,-10.0,-5.0,-17.0,0.0,0.0,0.0,0.0,0.0,0.0,0.0,0.0,0.0,0
16.0,-24.0,-34.0,-7.0,-13.0,-6.0,-34.0,6.0,0.0,0.0,0.0,0.0,0.0,0.0,0.0,0.0,0
17.0,-11.0,-21.0,7.0,3.0,6.0,-22.0,10.0,0.0,0.0,0.0,0.0,0.0,0.0,0.0,0.0,0
12.0,2.0,-18.0,5.0,7.0,2.0,-14.0,8.0,0.0,0.0,0.0,0.0,0.0,0.0,0.0,0.0,0
12.0,-6.0,-19.0,2.0,1.0,-3.0,-23.0,5.0,0.0,0.0,0.0,0.0,0.0,0.0,0.0,0.0,0
5.0,-10.0,-12.0,2.0,1.0,0.0,-22.0,9.0,0.0,0.0,0.0,0.0,0.0,0.0,0.0,0.0,0
0.0,-14.0,-11.0,-6.0,-5.0,3.0,-17.0,3.0,0.0,0.0,0.0,0.0,0.0,0.0,0.0,0.0,0
-8.0,-13.0,-14.0,-12.0,-5.0,0.0,-8.0,-2.0,0.0,0.0,0.0,0.0,0.0,0.0,0.0,0.0,0
-20.0,-12.0,-12.0,-20.0,-3.0,1.0,10.0,-6.0,0.0,0.0,0.0,0.0,0.0,0.0,0.0,0.0,0
-22.0,0.0,4.0,-7.0,-4.0,7.0,15.0,-9.0,0.0,0.0,0.0,0.0,0.0,0.0,0.0,0.0,0
-16.0,25.0,20.0,8.0,10.0,4.0,22.0,-9.0,0.0,0.0,0.0,0.0,0.0,0.0,0.0,0.0,0
-7.0,55.0,41.0,14.0,10.0,-2.0,31.0,-8.0,0.0,0.0,0.0,0.0,0.0,0.0,0.0,0.0,0
-9.0,42.0,31.0,12.0,6.0,-3.0,25.0,-14.0,0.0,0.0,0.0,0.0,0.0,0.0,0.0,0.0,0
-18.0,-10.0,9.0,-4.0,-8.0,-9.0,10.0,-15.0,0.0,0.0,0.0,0.0,0.0,0.0,0.0,0.0,0
-18.0,-26.0,0.0,-5.0,-13.0,-12.0,12.0,-17.0,0.0,0.0,0.0,0.0,0.0,0.0,0.0,0.0,0
-11.0,-14.0,-1.0,-1.0,-13.0,-5.0,6.0,-8.0,0.0,0.0,0.0,0.0,0.0,0.0,0.0,0.0,0
-3.0,-2.0,-1.0,-9.0,-7.0,-9.0,-1.0,-5.0,0.0,0.0,0.0,0.0,0.0,0.0,0.0,0.0,0
10.0,-3.0,-7.0,-1.0,-2.0,-4.0,-11.0,-6.0,0.0,0.0,0.0,0.0,0.0,0.0,0.0,0.0,0
9.0,-6.0,2.0,0.0,5.0,-4.0,-11.0,-3.0,0.0,0.0,0.0,0.0,0.0,0.0,0.0,0.0,0
3.0,-6.0,-4.0,-7.0,-2.0,-6.0,-11.0,-1.0,0.0,0.0,0.0,0.0,0.0,0.0,0.0,0.0,0
13.0,-4.0,-16.0,-6.0,-6.0,-7.0,-15.0,1.0,0.0,0.0,0.0,0.0,0.0,0.0,0.0,0.0,0
21.0,5.0,-6.0,3.0,-5.0,-2.0,-24.0,8.0,0.0,0.0,0.0,0.0,0.0,0.0,0.0,0.0,0
21.0,12.0,-13.0,-7.0,-5.0,2.0,-18.0,9.0,0.0,0.0,0.0,0.0,0.0,0.0,0.0,0.0,0
7.0,-4.0,-31.0,-24.0,-7.0,-4.0,-22.0,3.0,0.0,0.0,0.0,0.0,0.0,0.0,0.0,0.0,0
6.0,-30.0,-39.0,-13.0,-4.0,-6.0,-29.0,11.0,0.0,0.0,0.0,0.0,0.0,0.0,0.0,0.0,0
1.0,-24.0,-32.0,-3.0,2.0,-4.0,-21.0,12.0,0.0,0.0,0.0,0.0,0.0,0.0,0.0,0.0,0
-1.0,-18.0,-20.0,-1.0,1.0,2.0,-12.0,5.0,0.0,0.0,0.0,0.0,0.0,0.0,0.0,0.0,0
-18.0,-22.0,-9.0,4.0,-3.0,5.0,-6.0,2.0,0.0,0.0,0.0,0.0,0.0,0.0,0.0,0.0,0
-29.0,-22.0,11.0,7.0,2.0,6.0,14.0,4.0,0.0,0.0,0.0,0.0,0.0,0.0,0.0,0.0,0
-12.0,7.0,34.0,17.0,3.0,4.0,11.0,5.0,0.0,0.0,0.0,0.0,0.0,0.0,0.0,0.0,0
-3.0,35.0,43.0,19.0,3.0,0.0,22.0,-8.0,0.0,0.0,0.0,0.0,0.0,0.0,0.0,0.0,0
-12.0,31.0,34.0,0.0,1.0,3.0,23.0,-18.0,0.0,0.0,0.0,0.0,0.0,0.0,0.0,0.0,0
-14.0,14.0,16.0,-5.0,-7.0,-3.0,28.0,-26.0,0.0,0.0,0.0,0.0,0.0,0.0,0.0,0.0,0
-6.0,7.0,4.0,-11.0,1.0,-6.0,15.0,-17.0,0.0,0.0,0.0,0.0,0.0,0.0,0.0,0.0,0
-6.0,13.0,3.0,-14.0,-2.0,-10.0,3.0,-12.0,0.0,0.0,0.0,0.0,0.0,0.0,0.0,0.0,0
-7.0,4.0,-9.0,-15.0,-6.0,-12.0,0.0,-12.0,0.0,0.0,0.0,0.0,0.0,0.0,0.0,0.0,0
-8.0,-18.0,-15.0,-17.0,-5.0,-5.0,-8.0,-11.0,0.0,0.0,0.0,0.0,0.0,0.0,0.0,0.0,0
0.0,-21.0,-15.0,-9.0,-8.0,-4.0,-9.0,-9.0,0.0,0.0,0.0,0.0,0.0,0.0,0.0,0.0,0
-1.0,-19.0,-8.0,-3.0,1.0,-4.0,-10.0,-4.0,0.0,0.0,0.0,0.0,0.0,0.0,0.0,0.0,0
6.0,-4.0,-3.0,9.0,-4.0,-1.0,-2.0,-2.0,0.0,0.0,0.0,0.0,0.0,0.0,0.0,0.0,0
8.0,1.0,-8.0,4.0,-5.0,-4.0,-10.0,1.0,0.0,0.0,0.0,0.0,0.0,0.0,0.0,0.0,0
1.0,-11.0,-18.0,0.0,-6.0,-6.0,-26.0,9.0,0.0,0.0,0.0,0.0,0.0,0.0,0.0,0.0,0
2.0,-5.0,-18.0,1.0,-1.0,-6.0,-21.0,12.0,0.0,0.0,0.0,0.0,0.0,0.0,0.0,0.0,0
9.0,-4.0,-14.0,-1.0,-4.0,-6.0,-22.0,16.0,0.0,0.0,0.0,0.0,0.0,0.0,0.0,0.0,0
14.0,-13.0,-9.0,0.0,-4.0,-4.0,-27.0,11.0,0.0,0.0,0.0,0.0,0.0,0.0,0.0,0.0,0
9.0,-2.0,-7.0,6.0,-5.0,4.0,-24.0,3.0,0.0,0.0,0.0,0.0,0.0,0.0,0.0,0.0,0
15.0,11.0,-6.0,-4.0,-7.0,4.0,-9.0,-3.0,0.0,0.0,0.0,0.0,0.0,0.0,0.0,0.0,0
11.0,-8.0,-12.0,-12.0,-2.0,14.0,-3.0,5.0,0.0,0.0,0.0,0.0,0.0,0.0,0.0,0.0,0
-6.0,-10.0,-2.0,-5.0,8.0,6.0,11.0,0.0,0.0,0.0,0.0,0.0,0.0,0.0,0.0,0.0,0
-22.0,-7.0,6.0,-6.0,3.0,-1.0,19.0,-3.0,0.0,0.0,0.0,0.0,0.0,0.0,0.0,0.0,0
-32.0,-8.0,15.0,-3.0,-1.0,4.0,24.0,-11.0,0.0,0.0,0.0,0.0,0.0,0.0,0.0,0.0,0
-38.0,-1.0,21.0,-5.0,-1.0,-2.0,23.0,-15.0,0.0,0.0,0.0,0.0,0.0,0.0,0.0,0.0,0
-28.0,8.0,24.0,-4.0,-1.0,-3.0,17.0,-16.0,0.0,0.0,0.0,0.0,0.0,0.0,0.0,0.0,0
-18.0,10.0,24.0,-4.0,-7.0,-18.0,14.0,-14.0,0.0,0.0,0.0,0.0,0.0,0.0,0.0,0.0,0
-7.0,14.0,9.0,-8.0,-8.0,-9.0,13.0,-16.0,0.0,0.0,0.0,0.0,0.0,0.0,0.0,0.0,0
-10.0,13.0,-20.0,-13.0,-5.0,-5.0,8.0,-11.0,0.0,0.0,0.0,0.0,0.0,0.0,0.0,0.0,0
-4.0,13.0,-17.0,-11.0,-5.0,-8.0,1.0,-8.0,0.0,0.0,0.0,0.0,0.0,0.0,0.0,0.0,0
10.0,12.0,-15.0,-10.0,-3.0,-8.0,-10.0,-8.0,0.0,0.0,0.0,0.0,0.0,0.0,0.0,0.0,0
9.0,-6.0,-6.0,0.0,0.0,-5.0,-16.0,-4.0,0.0,0.0,0.0,0.0,0.0,0.0,0.0,0.0,0
10.0,-20.0,-2.0,4.0,5.0,-4.0,-9.0,3.0,0.0,0.0,0.0,0.0,0.0,0.0,0.0,0.0,0
12.0,-27.0,-5.0,9.0,10.0,-2.0,-19.0,3.0,0.0,0.0,0.0,0.0,0.0,0.0,0.0,0.0,0
20.0,-29.0,-15.0,19.0,3.0,2.0,-25.0,6.0,0.0,0.0,0.0,0.0,0.0,0.0,0.0,0.0,0
13.0,-13.0,-9.0,8.0,-2.0,6.0,-17.0,-1.0,0.0,0.0,0.0,0.0,0.0,0.0,0.0,0.0,0
10.0,0.0,1.0,-2.0,-4.0,3.0,-15.0,6.0,0.0,0.0,0.0,0.0,0.0,0.0,0.0,0.0,0
15.0,-5.0,-13.0,-4.0,-5.0,-8.0,-25.0,15.0,0.0,0.0,0.0,0.0,0.0,0.0,0.0,0.0,0
19.0,-7.0,-14.0,-10.0,-8.0,-5.0,-17.0,15.0,0.0,0.0,0.0,0.0,0.0,0.0,0.0,0.0,0
-5.0,1.0,-11.0,-21.0,-11.0,0.0,-9.0,7.0,0.0,0.0,0.0,0.0,0.0,0.0,0.0,0.0,0
-18.0,-14.0,-9.0,-18.0,-8.0,7.0,-3.0,4.0,0.0,0.0,0.0,0.0,0.0,0.0,0.0,0.0,0
-28.0,-10.0,6.0,-10.0,-1.0,5.0,10.0,8.0,0.0,0.0,0.0,0.0,0.0,0.0,0.0,0.0,0
-26.0,-7.0,5.0,-9.0,0.0,1.0,13.0,-4.0,0.0,0.0,0.0,0.0,0.0,0.0,0.0,0.0,0
-26.0,-1.0,4.0,-4.0,-1.0,-2.0,21.0,-12.0,0.0,0.0,0.0,0.0,0.0,0.0,0.0,0.0,0
-32.0,13.0,15.0,5.0,3.0,3.0,31.0,-20.0,0.0,0.0,0.0,0.0,0.0,0.0,0.0,0.0,0
-17.0,17.0,17.0,4.0,1.0,0.0,26.0,-18.0,0.0,0.0,0.0,0.0,0.0,0.0,0.0,0.0,0
0.0,20.0,13.0,2.0,0.0,-6.0,7.0,-17.0,0.0,0.0,0.0,0.0,0.0,0.0,0.0,0.0,0
2.0,22.0,8.0,6.0,-5.0,-7.0,0.0,-14.0,0.0,0.0,0.0,0.0,0.0,0.0,0.0,0.0,0
4.0,5.0,0.0,1.0,3.0,-10.0,6.0,-15.0,0.0,0.0,0.0,0.0,0.0,0.0,0.0,0.0,0
3.0,-16.0,-5.0,-7.0,3.0,-11.0,1.0,-11.0,0.0,0.0,0.0,0.0,0.0,0.0,0.0,0.0,0
-3.0,-15.0,-5.0,-9.0,-8.0,-6.0,-4.0,-5.0,0.0,0.0,0.0,0.0,0.0,0.0,0.0,0.0,0
-9.0,-4.0,-2.0,4.0,-6.0,2.0,-3.0,4.0,0.0,0.0,0.0,0.0,0.0,0.0,0.0,0.0,0
6.0,-5.0,4.0,9.0,-2.0,-7.0,0.0,10.0,0.0,0.0,0.0,0.0,0.0,0.0,0.0,0.0,0
10.0,-11.0,-17.0,-4.0,0.0,-9.0,-15.0,10.0,0.0,0.0,0.0,0.0,0.0,0.0,0.0,0.0,0
13.0,-15.0,-23.0,-13.0,-4.0,-4.0,-31.0,5.0,0.0,0.0,0.0,0.0,0.0,0.0,0.0,0.0,0
16.0,2.0,-12.0,-8.0,-1.0,5.0,-28.0,4.0,0.0,0.0,0.0,0.0,0.0,0.0,0.0,0.0,0
13.0,5.0,-6.0,0.0,-4.0,5.0,-21.0,5.0,0.0,0.0,0.0,0.0,0.0,0.0,0.0,0.0,0
18.0,-8.0,-10.0,-3.0,-4.0,-3.0,-28.0,10.0,0.0,0.0,0.0,0.0,0.0,0.0,0.0,0.0,0
11.0,-22.0,-19.0,-8.0,-5.0,-5.0,-18.0,13.0,0.0,0.0,0.0,0.0,0.0,0.0,0.0,0.0,0
-11.0,-29.0,-18.0,-2.0,-7.0,4.0,-8.0,4.0,0.0,0.0,0.0,0.0,0.0,0.0,0.0,0.0,0
-21.0,-34.0,-11.0,8.0,-1.0,9.0,-2.0,2.0,0.0,0.0,0.0,0.0,0.0,0.0,0.0,0.0,0
-27.0,-18.0,8.0,11.0,4.0,8.0,7.0,-3.0,0.0,0.0,0.0,0.0,0.0,0.0,0.0,0.0,0
-22.0,2.0,7.0,-1.0,7.0,1.0,18.0,-7.0,0.0,0.0,0.0,0.0,0.0,0.0,0.0,0.0,0
-13.0,13.0,11.0,-6.0,6.0,-3.0,18.0,-13.0,0.0,0.0,0.0,0.0,0.0,0.0,0.0,0.0,0
-15.0,43.0,31.0,-3.0,1.0,-10.0,24.0,-16.0,0.0,0.0,0.0,0.0,0.0,0.0,0.0,0.0,0
-4.0,63.0,32.0,-7.0,-7.0,-9.0,22.0,-12.0,0.0,0.0,0.0,0.0,0.0,0.0,0.0,0.0,0
-3.0,45.0,14.0,-7.0,-7.0,-3.0,16.0,-9.0,0.0,0.0,0.0,0.0,0.0,0.0,0.0,0.0,0
-2.0,12.0,-5.0,-11.0,-6.0,-8.0,14.0,-14.0,0.0,0.0,0.0,0.0,0.0,0.0,0.0,0.0,0
0.0,-20.0,-7.0,-13.0,-3.0,-9.0,6.0,-8.0,0.0,0.0,0.0,0.0,0.0,0.0,0.0,0.0,0
-3.0,-37.0,-13.0,-9.0,-11.0,-6.0,-1.0,-9.0,0.0,0.0,0.0,0.0,0.0,0.0,0.0,0.0,0
-1.0,-40.0,-8.0,1.0,-7.0,-2.0,-6.0,-7.0,0.0,0.0,0.0,0.0,0.0,0.0,0.0,0.0,0
0.0,-10.0,-1.0,-3.0,-4.0,3.0,-11.0,-6.0,0.0,0.0,0.0,0.0,0.0,0.0,0.0,0.0,0
-2.0,-9.0,-2.0,2.0,-3.0,-7.0,-14.0,-5.0,0.0,0.0,0.0,0.0,0.0,0.0,0.0,0.0,0
1.0,-13.0,-9.0,6.0,-2.0,-8.0,-21.0,0.0,0.0,0.0,0.0,0.0,0.0,0.0,0.0,0.0,0
3.0,-20.0,-8.0,13.0,0.0,-5.0,-26.0,7.0,0.0,0.0,0.0,0.0,0.0,0.0,0.0,0.0,0
-4.0,-12.0,-15.0,0.0,3.0,0.0,-22.0,10.0,0.0,0.0,0.0,0.0,0.0,0.0,0.0,0.0,0
15.0,-2.0,-22.0,-12.0,-8.0,-1.0,-17.0,11.0,0.0,0.0,0.0,0.0,0.0,0.0,0.0,0.0,0
35.0,6.0,-25.0,-13.0,0.0,-3.0,-29.0,11.0,0.0,0.0,0.0,0.0,0.0,0.0,0.0,0.0,0
26.0,9.0,-18.0,-4.0,5.0,3.0,-19.0,10.0,0.0,0.0,0.0,0.0,0.0,0.0,0.0,0.0,0
8.0,10.0,-16.0,3.0,3.0,3.0,-12.0,2.0,0.0,0.0,0.0,0.0,0.0,0.0,0.0,0.0,0
0.0,6.0,-2.0,3.0,0.0,8.0,0.0,1.0,0.0,0.0,0.0,0.0,0.0,0.0,0.0,0.0,0
-15.0,-2.0,20.0,12.0,-4.0,8.0,12.0,5.0,0.0,0.0,0.0,0.0,0.0,0.0,0.0,0.0,0
-27.0,-8.0,23.0,8.0,3.0,3.0,11.0,-5.0,0.0,0.0,0.0,0.0,0.0,0.0,0.0,0.0,0
-36.0,-25.0,23.0,10.0,-2.0,-2.0,18.0,-9.0,0.0,0.0,0.0,0.0,0.0,0.0,0.0,0.0,0
-41.0,-10.0,18.0,-1.0,-8.0,-8.0,37.0,-16.0,0.0,0.0,0.0,0.0,0.0,0.0,0.0,0.0,0
-38.0,7.0,4.0,-19.0,-8.0,-9.0,24.0,-17.0,0.0,0.0,0.0,0.0,0.0,0.0,0.0,0.0,0
-13.0,20.0,-2.0,-13.0,-6.0,-5.0,12.0,-12.0,0.0,0.0,0.0,0.0,0.0,0.0,0.0,0.0,0
4.0,24.0,9.0,-4.0,-1.0,-7.0,7.0,-11.0,0.0,0.0,0.0,0.0,0.0,0.0,0.0,0.0,0
3.0,7.0,12.0,-9.0,1.0,-9.0,4.0,-14.0,0.0,0.0,0.0,0.0,0.0,0.0,0.0,0.0,0
8.0,-7.0,-1.0,-6.0,-3.0,-13.0,-2.0,-14.0,0.0,0.0,0.0,0.0,0.0,0.0,0.0,0.0,0
9.0,0.0,-7.0,-1.0,-5.0,-9.0,-6.0,-11.0,0.0,0.0,0.0,0.0,0.0,0.0,0.0,0.0,0
14.0,-5.0,-11.0,-1.0,-7.0,-3.0,-11.0,0.0,0.0,0.0,0.0,0.0,0.0,0.0,0.0,0.0,0
7.0,-8.0,-17.0,-8.0,-7.0,-5.0,-7.0,-2.0,0.0,0.0,0.0,0.0,0.0,0.0,0.0,0.0,0
11.0,-8.0,-24.0,-9.0,-8.0,-5.0,-17.0,0.0,0.0,0.0,0.0,0.0,0.0,0.0,0.0,0.0,0
18.0,-18.0,-27.0,-11.0,-13.0,-4.0,-28.0,9.0,0.0,0.0,0.0,0.0,0.0,0.0,0.0,0.0,0
8.0,-19.0,-11.0,-6.0,-1.0,5.0,-15.0,16.0,0.0,0.0,0.0,0.0,0.0,0.0,0.0,0.0,0
6.0,-15.0,-13.0,-2.0,3.0,4.0,-11.0,13.0,0.0,0.0,0.0,0.0,0.0,0.0,0.0,0.0,0
9.0,-11.0,-7.0,4.0,6.0,2.0,-21.0,12.0,0.0,0.0,0.0,0.0,0.0,0.0,0.0,0.0,0
-3.0,-21.0,-9.0,4.0,3.0,2.0,-22.0,14.0,0.0,0.0,0.0,0.0,0.0,0.0,0.0,0.0,0
-9.0,-14.0,-7.0,17.0,5.0,2.0,-13.0,2.0,0.0,0.0,0.0,0.0,0.0,0.0,0.0,0.0,0
-9.0,5.0,6.0,16.0,-1.0,-4.0,-3.0,-6.0,0.0,0.0,0.0,0.0,0.0,0.0,0.0,0.0,0
-16.0,11.0,11.0,11.0,4.0,2.0,6.0,-9.0,0.0,0.0,0.0,0.0,0.0,0.0,0.0,0.0,0
-14.0,14.0,16.0,7.0,4.0,4.0,8.0,-5.0,0.0,0.0,0.0,0.0,0.0,0.0,0.0,0.0,0
-12.0,17.0,14.0,0.0,7.0,0.0,19.0,-5.0,0.0,0.0,0.0,0.0,0.0,0.0,0.0,0.0,0
-18.0,13.0,18.0,-12.0,3.0,8.0,29.0,-9.0,0.0,0.0,0.0,0.0,0.0,0.0,0.0,0.0,0
-13.0,1.0,9.0,-10.0,-13.0,1.0,24.0,-12.0,0.0,0.0,0.0,0.0,0.0,0.0,0.0,0.0,0
-5.0,-1.0,-2.0,-21.0,-11.0,-11.0,11.0,-15.0,0.0,0.0,0.0,0.0,0.0,0.0,0.0,0.0,0
-17.0,-6.0,-8.0,-17.0,-8.0,-19.0,6.0,-15.0,0.0,0.0,0.0,0.0,0.0,0.0,0.0,0.0,0
-12.0,1.0,-7.0,-7.0,-7.0,-10.0,2.0,-13.0,0.0,0.0,0.0,0.0,0.0,0.0,0.0,0.0,0
-2.0,2.0,3.0,-5.0,-13.0,-10.0,-1.0,-9.0,0.0,0.0,0.0,0.0,0.0,0.0,0.0,0.0,0
6.0,-3.0,8.0,0.0,-10.0,-8.0,-9.0,-6.0,0.0,0.0,0.0,0.0,0.0,0.0,0.0,0.0,0
3.0,-7.0,-1.0,-6.0,-6.0,-1.0,-6.0,1.0,0.0,0.0,0.0,0.0,0.0,0.0,0.0,0.0,0
4.0,-2.0,-2.0,-5.0,-1.0,-1.0,-6.0,3.0,0.0,0.0,0.0,0.0,0.0,0.0,0.0,0.0,0
17.0,1.0,-6.0,5.0,-1.0,-1.0,-17.0,7.0,0.0,0.0,0.0,0.0,0.0,0.0,0.0,0.0,0
20.0,-14.0,-28.0,-2.0,3.0,1.0,-21.0,1.0,0.0,0.0,0.0,0.0,0.0,0.0,0.0,0.0,0
5.0,-25.0,-35.0,-7.0,1.0,6.0,-18.0,3.0,0.0,0.0,0.0,0.0,0.0,0.0,0.0,0.0,0
3.0,-18.0,-28.0,-9.0,1.0,3.0,-20.0,4.0,0.0,0.0,0.0,0.0,0.0,0.0,0.0,0.0,0
4.0,-13.0,-22.0,-4.0,0.0,-6.0,-40.0,15.0,0.0,0.0,0.0,0.0,0.0,0.0,0.0,0.0,0
9.0,-10.0,-12.0,8.0,1.0,-1.0,-29.0,15.0,0.0,0.0,0.0,0.0,0.0,0.0,0.0,0.0,0
6.0,-4.0,2.0,12.0,6.0,9.0,-6.0,1.0,0.0,0.0,0.0,0.0,0.0,0.0,0.0,0.0,0
-3.0,1.0,3.0,11.0,4.0,11.0,4.0,4.0,0.0,0.0,0.0,0.0,0.0,0.0,0.0,0.0,0
-17.0,11.0,20.0,4.0,6.0,5.0,8.0,0.0,0.0,0.0,0.0,0.0,0.0,0.0,0.0,0.0,0
-17.0,8.0,23.0,4.0,5.0,2.0,17.0,-3.0,0.0,0.0,0.0,0.0,0.0,0.0,0.0,0.0,0
-23.0,5.0,16.0,5.0,-2.0,0.0,27.0,-5.0,0.0,0.0,0.0,0.0,0.0,0.0,0.0,0.0,0
-30.0,8.0,18.0,-4.0,-16.0,-4.0,33.0,-18.0,0.0,0.0,0.0,0.0,0.0,0.0,0.0,0.0,0
-21.0,10.0,6.0,-11.0,-8.0,-10.0,25.0,-17.0,0.0,0.0,0.0,0.0,0.0,0.0,0.0,0.0,0
-13.0,-1.0,-3.0,-6.0,-5.0,-8.0,15.0,-14.0,0.0,0.0,0.0,0.0,0.0,0.0,0.0,0.0,0
-11.0,-3.0,9.0,-1.0,-4.0,-6.0,6.0,-15.0,0.0,0.0,0.0,0.0,0.0,0.0,0.0,0.0,0
2.0,2.0,3.0,-11.0,-5.0,-9.0,-1.0,-11.0,0.0,0.0,0.0,0.0,0.0,0.0,0.0,0.0,0
1.0,8.0,2.0,-16.0,-3.0,-10.0,-2.0,-14.0,0.0,0.0,0.0,0.0,0.0,0.0,0.0,0.0,0
8.0,-5.0,-3.0,-12.0,-1.0,-7.0,-13.0,-9.0,0.0,0.0,0.0,0.0,0.0,0.0,0.0,0.0,0
7.0,-2.0,-2.0,0.0,-3.0,-5.0,-11.0,-3.0,0.0,0.0,0.0,0.0,0.0,0.0,0.0,0.0,0
3.0,-7.0,-1.0,-3.0,-3.0,-5.0,-11.0,6.0,0.0,0.0,0.0,0.0,0.0,0.0,0.0,0.0,0
9.0,-14.0,-21.0,-2.0,-4.0,-4.0,-16.0,2.0,0.0,0.0,0.0,0.0,0.0,0.0,0.0,0.0,0
12.0,-8.0,-34.0,4.0,-2.0,2.0,-20.0,5.0,0.0,0.0,0.0,0.0,0.0,0.0,0.0,0.0,0
9.0,0.0,-26.0,-5.0,2.0,3.0,-16.0,3.0,0.0,0.0,0.0,0.0,0.0,0.0,0.0,0.0,0
11.0,-6.0,-20.0,-6.0,0.0,6.0,-19.0,9.0,0.0,0.0,0.0,0.0,0.0,0.0,0.0,0.0,0
14.0,-12.0,-24.0,-8.0,4.0,-3.0,-30.0,20.0,0.0,0.0,0.0,0.0,0.0,0.0,0.0,0.0,0
14.0,-4.0,-12.0,1.0,2.0,1.0,-25.0,12.0,0.0,0.0,0.0,0.0,0.0,0.0,0.0,0.0,0
-1.0,-10.0,1.0,8.0,-1.0,7.0,-7.0,2.0,0.0,0.0,0.0,0.0,0.0,0.0,0.0,0.0,0
-3.0,-11.0,7.0,10.0,0.0,1.0,-3.0,-6.0,0.0,0.0,0.0,0.0,0.0,0.0,0.0,0.0,0
-7.0,-2.0,12.0,0.0,-9.0,-6.0,8.0,-4.0,0.0,0.0,0.0,0.0,0.0,0.0,0.0,0.0,0
-13.0,-1.0,14.0,5.0,1.0,-3.0,12.0,-5.0,0.0,0.0,0.0,0.0,0.0,0.0,0.0,0.0,0
-22.0,1.0,17.0,6.0,-5.0,-2.0,23.0,-9.0,0.0,0.0,0.0,0.0,0.0,0.0,0.0,0.0,0
-24.0,19.0,19.0,-7.0,-7.0,2.0,27.0,-10.0,0.0,0.0,0.0,0.0,0.0,0.0,0.0,0.0,0
-22.0,13.0,8.0,-5.0,-6.0,1.0,19.0,-17.0,0.0,0.0,0.0,0.0,0.0,0.0,0.0,0.0,0
-17.0,4.0,5.0,0.0,2.0,-7.0,8.0,-12.0,0.0,0.0,0.0,0.0,0.0,0.0,0.0,0.0,0
-19.0,-6.0,14.0,11.0,0.0,-8.0,12.0,-8.0,0.0,0.0,0.0,0.0,0.0,0.0,0.0,0.0,0
-17.0,-3.0,9.0,-4.0,-5.0,-12.0,11.0,-9.0,0.0,0.0,0.0,0.0,0.0,0.0,0.0,0.0,0
-13.0,0.0,0.0,-13.0,-8.0,-5.0,2.0,-11.0,0.0,0.0,0.0,0.0,0.0,0.0,0.0,0.0,0
1.0,-4.0,-10.0,-17.0,-7.0,-4.0,-6.0,-16.0,0.0,0.0,0.0,0.0,0.0,0.0,0.0,0.0,0
15.0,11.0,-7.0,-15.0,1.0,-8.0,-10.0,-5.0,0.0,0.0,0.0,0.0,0.0,0.0,0.0,0.0,0
19.0,19.0,-12.0,-11.0,2.0,-7.0,-15.0,0.0,0.0,0.0,0.0,0.0,0.0,0.0,0.0,0.0,0
20.0,3.0,-32.0,-19.0,-7.0,-3.0,-17.0,3.0,0.0,0.0,0.0,0.0,0.0,0.0,0.0,0.0,0
24.0,-16.0,-46.0,-20.0,-12.0,-8.0,-25.0,11.0,0.0,0.0,0.0,0.0,0.0,0.0,0.0,0.0,0
16.0,-25.0,-35.0,-2.0,-2.0,-2.0,-20.0,7.0,0.0,0.0,0.0,0.0,0.0,0.0,0.0,0.0,0
4.0,-34.0,-19.0,13.0,1.0,-1.0,-16.0,8.0,0.0,0.0,0.0,0.0,0.0,0.0,0.0,0.0,0
-1.0,-43.0,-8.0,24.0,6.0,0.0,-22.0,15.0,0.0,0.0,0.0,0.0,0.0,0.0,0.0,0.0,0
-6.0,-31.0,6.0,14.0,5.0,6.0,-18.0,10.0,0.0,0.0,0.0,0.0,0.0,0.0,0.0,0.0,0
-12.0,-14.0,8.0,8.0,0.0,6.0,-12.0,0.0,0.0,0.0,0.0,0.0,0.0,0.0,0.0,0.0,0
-5.0,14.0,8.0,8.0,-3.0,4.0,-9.0,2.0,0.0,0.0,0.0,0.0,0.0,0.0,0.0,0.0,0
-3.0,41.0,22.0,11.0,7.0,3.0,7.0,1.0,0.0,0.0,0.0,0.0,0.0,0.0,0.0,0.0,0
-10.0,62.0,24.0,-1.0,6.0,0.0,17.0,3.0,0.0,0.0,0.0,0.0,0.0,0.0,0.0,0.0,0
-12.0,44.0,14.0,-16.0,-5.0,-7.0,15.0,-9.0,0.0,0.0,0.0,0.0,0.0,0.0,0.0,0.0,0
-25.0,12.0,21.0,-18.0,-8.0,-12.0,32.0,-22.0,0.0,0.0,0.0,0.0,0.0,0.0,0.0,0.0,0
-20.0,-20.0,4.0,-10.0,-10.0,-5.0,27.0,-22.0,0.0,0.0,0.0,0.0,0.0,0.0,0.0,0.0,0
-13.0,-40.0,-18.0,-12.0,-6.0,1.0,8.0,-14.0,0.0,0.0,0.0,0.0,0.0,0.0,0.0,0.0,0
-13.0,-42.0,-6.0,0.0,8.0,-6.0,12.0,-10.0,0.0,0.0,0.0,0.0,0.0,0.0,0.0,0.0,0
-4.0,-17.0,1.0,10.0,6.0,-2.0,7.0,-12.0,0.0,0.0,0.0,0.0,0.0,0.0,0.0,0.0,0
6.0,19.0,9.0,3.0,-1.0,0.0,-3.0,-3.0,0.0,0.0,0.0,0.0,0.0,0.0,0.0,0.0,0
10.0,30.0,2.0,-2.0,-15.0,-12.0,-5.0,-3.0,0.0,0.0,0.0,0.0,0.0,0.0,0.0,0.0,0
1.0,3.0,-4.0,-11.0,-13.0,-10.0,-10.0,-10.0,0.0,0.0,0.0,0.0,0.0,0.0,0.0,0.0,0
-3.0,-15.0,-5.0,-11.0,-3.0,-11.0,-8.0,-1.0,0.0,0.0,0.0,0.0,0.0,0.0,0.0,0.0,0
4.0,-13.0,-17.0,-1.0,-5.0,-17.0,-20.0,3.0,0.0,0.0,0.0,0.0,0.0,0.0,0.0,0.0,0
7.0,-14.0,-20.0,0.0,-6.0,-3.0,-29.0,6.0,0.0,0.0,0.0,0.0,0.0,0.0,0.0,0.0,0
4.0,-10.0,-12.0,-4.0,4.0,8.0,-19.0,4.0,0.0,0.0,0.0,0.0,0.0,0.0,0.0,0.0,0
16.0,-9.0,-14.0,-1.0,2.0,7.0,-20.0,16.0,0.0,0.0,0.0,0.0,0.0,0.0,0.0,0.0,0
28.0,-6.0,-18.0,-8.0,-6.0,7.0,-23.0,13.0,0.0,0.0,0.0,0.0,0.0,0.0,0.0,0.0,0
9.0,-10.0,-26.0,-16.0,-6.0,-4.0,-18.0,7.0,0.0,0.0,0.0,0.0,0.0,0.0,0.0,0.0,0
-15.0,-20.0,-35.0,-16.0,-6.0,-5.0,-14.0,3.0,0.0,0.0,0.0,0.0,0.0,0.0,0.0,0.0,0
-7.0,-6.0,-1.0,-5.0,3.0,-3.0,-9.0,-2.0,0.0,0.0,0.0,0.0,0.0,0.0,0.0,0.0,0
-5.0,14.0,27.0,16.0,9.0,6.0,7.0,-3.0,0.0,0.0,0.0,0.0,0.0,0.0,0.0,0.0,0
-8.0,14.0,17.0,17.0,6.0,3.0,15.0,2.0,0.0,0.0,0.0,0.0,0.0,0.0,0.0,0.0,0
-14.0,13.0,14.0,22.0,3.0,3.0,20.0,-9.0,0.0,0.0,0.0,0.0,0.0,0.0,0.0,0.0,0
-25.0,11.0,23.0,9.0,2.0,6.0,32.0,-22.0,0.0,0.0,0.0,0.0,0.0,0.0,0.0,0.0,0
-24.0,8.0,17.0,-1.0,-5.0,3.0,21.0,-22.0,0.0,0.0,0.0,0.0,0.0,0.0,0.0,0.0,0
-15.0,3.0,14.0,-3.0,-8.0,-5.0,11.0,-13.0,0.0,0.0,0.0,0.0,0.0,0.0,0.0,0.0,0
-20.0,-5.0,11.0,-4.0,-5.0,-1.0,7.0,-2.0,0.0,0.0,0.0,0.0,0.0,0.0,0.0,0.0,0
-24.0,-17.0,8.0,-7.0,-1.0,-12.0,13.0,-8.0,0.0,0.0,0.0,0.0,0.0,0.0,0.0,0.0,0
-11.0,-22.0,0.0,-13.0,-2.0,-16.0,7.0,-12.0,0.0,0.0,0.0,0.0,0.0,0.0,0.0,0.0,0
6.0,1.0,-1.0,-9.0,-6.0,-15.0,-1.0,-11.0,0.0,0.0,0.0,0.0,0.0,0.0,0.0,0.0,0
23.0,13.0,-4.0,-7.0,-4.0,-13.0,-6.0,-3.0,0.0,0.0,0.0,0.0,0.0,0.0,0.0,0.0,0
19.0,20.0,-13.0,-9.0,-4.0,-11.0,-16.0,-5.0,0.0,0.0,0.0,0.0,0.0,0.0,0.0,0.0,0
24.0,10.0,-16.0,-13.0,-6.0,-2.0,-28.0,2.0,0.0,0.0,0.0,0.0,0.0,0.0,0.0,0.0,0
16.0,-13.0,-21.0,-14.0,-6.0,-2.0,-36.0,3.0,0.0,0.0,0.0,0.0,0.0,0.0,0.0,0.0,0
10.0,-19.0,-24.0,-5.0,-6.0,2.0,-24.0,7.0,0.0,0.0,0.0,0.0,0.0,0.0,0.0,0.0,0
-2.0,-24.0,-32.0,1.0,-4.0,9.0,-18.0,12.0,0.0,0.0,0.0,0.0,0.0,0.0,0.0,0.0,0
5.0,-24.0,-39.0,-1.0,-3.0,6.0,-23.0,15.0,0.0,0.0,0.0,0.0,0.0,0.0,0.0,0.0,0
8.0,-20.0,-25.0,-2.0,-4.0,2.0,-15.0,13.0,0.0,0.0,0.0,0.0,0.0,0.0,0.0,0.0,0
1.0,-18.0,-7.0,5.0,0.0,-4.0,-4.0,4.0,0.0,0.0,0.0,0.0,0.0,0.0,0.0,0.0,0
-10.0,-16.0,1.0,2.0,0.0,1.0,-3.0,-4.0,0.0,0.0,0.0,0.0,0.0,0.0,0.0,0.0,0
-19.0,4.0,22.0,10.0,8.0,1.0,12.0,-5.0,0.0,0.0,0.0,0.0,0.0,0.0,0.0,0.0,0
-19.0,23.0,40.0,9.0,8.0,1.0,13.0,-4.0,0.0,0.0,0.0,0.0,0.0,0.0,0.0,0.0,0
-12.0,30.0,42.0,18.0,2.0,-8.0,21.0,-7.0,0.0,0.0,0.0,0.0,0.0,0.0,0.0,0.0,0
-19.0,35.0,30.0,9.0,-1.0,-3.0,21.0,-17.0,0.0,0.0,0.0,0.0,0.0,0.0,0.0,0.0,0
-18.0,16.0,11.0,-8.0,-8.0,-3.0,22.0,-18.0,0.0,0.0,0.0,0.0,0.0,0.0,0.0,0.0,0
-13.0,-2.0,-8.0,-17.0,-6.0,-9.0,14.0,-12.0,0.0,0.0,0.0,0.0,0.0,0.0,0.0,0.0,0
-6.0,-13.0,-23.0,-24.0,3.0,-8.0,7.0,-8.0,0.0,0.0,0.0,0.0,0.0,0.0,0.0,0.0,0
-9.0,-14.0,-15.0,-21.0,-1.0,-4.0,4.0,-10.0,0.0,0.0,0.0,0.0,0.0,0.0,0.0,0.0,0
-2.0,-1.0,-11.0,-17.0,-10.0,-1.0,3.0,-13.0,0.0,0.0,0.0,0.0,0.0,0.0,0.0,0.0,0
14.0,-2.0,-3.0,-12.0,-14.0,-5.0,-12.0,-4.0,0.0,0.0,0.0,0.0,0.0,0.0,0.0,0.0,0
-2.0,-11.0,11.0,-3.0,-5.0,-7.0,-8.0,0.0,0.0,0.0,0.0,0.0,0.0,0.0,0.0,0.0,0
-6.0,-15.0,15.0,8.0,-1.0,-1.0,-2.0,-5.0,0.0,0.0,0.0,0.0,0.0,0.0,0.0,0.0,0
6.0,-7.0,-6.0,7.0,-8.0,-1.0,-14.0,4.0,0.0,0.0,0.0,0.0,0.0,0.0,0.0,0.0,0
25.0,-8.0,-26.0,7.0,-1.0,-7.0,-25.0,9.0,0.0,0.0,0.0,0.0,0.0,0.0,0.0,0.0,0
21.0,0.0,-33.0,-4.0,4.0,-1.0,-23.0,1.0,0.0,0.0,0.0,0.0,0.0,0.0,0.0,0.0,0
11.0,-5.0,-34.0,-10.0,3.0,-1.0,-26.0,7.0,0.0,0.0,0.0,0.0,0.0,0.0,0.0,0.0,0
14.0,-16.0,-31.0,-4.0,-2.0,1.0,-29.0,13.0,0.0,0.0,0.0,0.0,0.0,0.0,0.0,0.0,0
5.0,-9.0,-4.0,7.0,-7.0,5.0,-16.0,11.0,0.0,0.0,0.0,0.0,0.0,0.0,0.0,0.0,0
-7.0,-3.0,5.0,-1.0,0.0,7.0,-2.0,11.0,0.0,0.0,0.0,0.0,0.0,0.0,0.0,0.0,0
-7.0,-9.0,4.0,-1.0,-2.0,2.0,-2.0,5.0,0.0,0.0,0.0,0.0,0.0,0.0,0.0,0.0,0
-16.0,7.0,22.0,6.0,-1.0,5.0,2.0,-1.0,0.0,0.0,0.0,0.0,0.0,0.0,0.0,0.0,0
-12.0,7.0,15.0,3.0,-5.0,1.0,11.0,-8.0,0.0,0.0,0.0,0.0,0.0,0.0,0.0,0.0,0
-17.0,-1.0,15.0,0.0,1.0,-4.0,21.0,-14.0,0.0,0.0,0.0,0.0,0.0,0.0,0.0,0.0,0
-23.0,7.0,23.0,-1.0,4.0,-5.0,30.0,-16.0,0.0,0.0,0.0,0.0,0.0,0.0,0.0,0.0,0
-24.0,2.0,14.0,-3.0,-3.0,6.0,22.0,-17.0,0.0,0.0,0.0,0.0,0.0,0.0,0.0,0.0,0
-6.0,4.0,-2.0,-10.0,-5.0,1.0,12.0,-17.0,0.0,0.0,0.0,0.0,0.0,0.0,0.0,0.0,0
-5.0,1.0,-5.0,-8.0,-1.0,-8.0,11.0,-12.0,0.0,0.0,0.0,0.0,0.0,0.0,0.0,0.0,0
-8.0,2.0,-1.0,-6.0,-4.0,-8.0,6.0,-16.0,0.0,0.0,0.0,0.0,0.0,0.0,0.0,0.0,0
-2.0,7.0,8.0,-1.0,-8.0,-5.0,-4.0,-12.0,0.0,0.0,0.0,0.0,0.0,0.0,0.0,0.0,0
3.0,-4.0,-1.0,-3.0,-10.0,-11.0,-8.0,-6.0,0.0,0.0,0.0,0.0,0.0,0.0,0.0,0.0,0
1.0,-7.0,-6.0,-7.0,-4.0,-7.0,-6.0,3.0,0.0,0.0,0.0,0.0,0.0,0.0,0.0,0.0,0
-4.0,-3.0,-17.0,-9.0,-6.0,-8.0,-7.0,0.0,0.0,0.0,0.0,0.0,0.0,0.0,0.0,0.0,0
13.0,-3.0,-18.0,-5.0,-8.0,-10.0,-18.0,0.0,0.0,0.0,0.0,0.0,0.0,0.0,0.0,0.0,0
31.0,-4.0,-20.0,-3.0,-6.0,0.0,-35.0,14.0,0.0,0.0,0.0,0.0,0.0,0.0,0.0,0.0,0
17.0,-7.0,-24.0,-8.0,-6.0,5.0,-23.0,8.0,0.0,0.0,0.0,0.0,0.0,0.0,0.0,0.0,0
5.0,-17.0,-34.0,-6.0,-2.0,-2.0,-24.0,5.0,0.0,0.0,0.0,0.0,0.0,0.0,0.0,0.0,0
9.0,-19.0,-27.0,-4.0,0.0,-5.0,-23.0,13.0,0.0,0.0,0.0,0.0,0.0,0.0,0.0,0.0,0
-2.0,-15.0,-12.0,-1.0,1.0,-1.0,-11.0,5.0,0.0,0.0,0.0,0.0,0.0,0.0,0.0,0.0,0
-25.0,-17.0,-1.0,3.0,-3.0,1.0,-10.0,2.0,0.0,0.0,0.0,0.0,0.0,0.0,0.0,0.0,0
-26.0,-17.0,-2.0,1.0,-8.0,4.0,-6.0,1.0,0.0,0.0,0.0,0.0,0.0,0.0,0.0,0.0,0
-8.0,-2.0,18.0,7.0,-1.0,5.0,4.0,-1.0,0.0,0.0,0.0,0.0,0.0,0.0,0.0,0.0,0
3.0,18.0,24.0,16.0,12.0,5.0,17.0,-4.0,0.0,0.0,0.0,0.0,0.0,0.0,0.0,0.0,0
-5.0,27.0,27.0,16.0,12.0,0.0,26.0,-4.0,0.0,0.0,0.0,0.0,0.0,0.0,0.0,0.0,0
-21.0,27.0,30.0,10.0,6.0,-4.0,36.0,-17.0,0.0,0.0,0.0,0.0,0.0,0.0,0.0,0.0,0
-16.0,10.0,15.0,-1.0,5.0,-3.0,29.0,-15.0,0.0,0.0,0.0,0.0,0.0,0.0,0.0,0.0,0
-4.0,-3.0,8.0,-4.0,-6.0,3.0,11.0,-13.0,0.0,0.0,0.0,0.0,0.0,0.0,0.0,0.0,0
-12.0,-4.0,0.0,-14.0,-5.0,-9.0,10.0,-15.0,0.0,0.0,0.0,0.0,0.0,0.0,0.0,0.0,0
-16.0,-5.0,-3.0,-22.0,-9.0,-15.0,1.0,-15.0,0.0,0.0,0.0,0.0,0.0,0.0,0.0,0.0,0
-13.0,-10.0,-10.0,-20.0,-12.0,-5.0,-6.0,-8.0,0.0,0.0,0.0,0.0,0.0,0.0,0.0,0.0,0
-1.0,-3.0,-7.0,-12.0,-12.0,-6.0,-10.0,0.0,0.0,0.0,0.0,0.0,0.0,0.0,0.0,0.0,0
9.0,1.0,-9.0,-4.0,-10.0,-10.0,-12.0,-2.0,0.0,0.0,0.0,0.0,0.0,0.0,0.0,0.0,0
11.0,0.0,-9.0,-1.0,-7.0,-7.0,-10.0,-4.0,0.0,0.0,0.0,0.0,0.0,0.0,0.0,0.0,0
11.0,-14.0,-22.0,-5.0,-4.0,-8.0,-14.0,-1.0,0.0,0.0,0.0,0.0,0.0,0.0,0.0,0.0,0
26.0,-7.0,-23.0,-1.0,-1.0,-4.0,-19.0,9.0,0.0,0.0,0.0,0.0,0.0,0.0,0.0,0.0,0
19.0,8.0,-1.0,8.0,2.0,2.0,-13.0,9.0,0.0,0.0,0.0,0.0,0.0,0.0,0.0,0.0,0
10.0,3.0,-10.0,9.0,3.0,9.0,-21.0,11.0,0.0,0.0,0.0,0.0,0.0,0.0,0.0,0.0,0
12.0,-8.0,-22.0,6.0,1.0,2.0,-31.0,15.0,0.0,0.0,0.0,0.0,0.0,0.0,0.0,0.0,0
-9.0,-21.0,-18.0,-7.0,-1.0,-1.0,-17.0,6.0,0.0,0.0,0.0,0.0,0.0,0.0,0.0,0.0,0
-16.0,-25.0,-11.0,-9.0,5.0,-2.0,-8.0,9.0,0.0,0.0,0.0,0.0,0.0,0.0,0.0,0.0,0
-12.0,-27.0,-21.0,-10.0,-5.0,-4.0,-9.0,15.0,0.0,0.0,0.0,0.0,0.0,0.0,0.0,0.0,0
-16.0,-17.0,-2.0,-8.0,0.0,3.0,2.0,2.0,0.0,0.0,0.0,0.0,0.0,0.0,0.0,0.0,0
-14.0,4.0,11.0,-4.0,-3.0,-1.0,14.0,-9.0,0.0,0.0,0.0,0.0,0.0,0.0,0.0,0.0,0
-22.0,10.0,19.0,0.0,-1.0,-4.0,21.0,-22.0,0.0,0.0,0.0,0.0,0.0,0.0,0.0,0.0,0
-25.0,21.0,37.0,14.0,-5.0,4.0,32.0,-19.0,0.0,0.0,0.0,0.0,0.0,0.0,0.0,0.0,0
-5.0,32.0,41.0,17.0,6.0,0.0,23.0,-16.0,0.0,0.0,0.0,0.0,0.0,0.0,0.0,0.0,0
5.0,23.0,21.0,1.0,2.0,-4.0,15.0,-14.0,0.0,0.0,0.0,0.0,0.0,0.0,0.0,0.0,0
2.0,15.0,4.0,-10.0,-6.0,-4.0,10.0,-7.0,0.0,0.0,0.0,0.0,0.0,0.0,0.0,0.0,0
0.0,5.0,-14.0,-15.0,-9.0,-7.0,6.0,-9.0,0.0,0.0,0.0,0.0,0.0,0.0,0.0,0.0,0
-2.0,-6.0,-16.0,-12.0,-7.0,-9.0,-2.0,-7.0,0.0,0.0,0.0,0.0,0.0,0.0,0.0,0.0,0
-9.0,-17.0,-12.0,-5.0,-8.0,-12.0,-7.0,-5.0,0.0,0.0,0.0,0.0,0.0,0.0,0.0,0.0,0
-1.0,-22.0,0.0,-1.0,1.0,-8.0,-8.0,2.0,0.0,0.0,0.0,0.0,0.0,0.0,0.0,0.0,0
-4.0,-20.0,-10.0,0.0,2.0,0.0,-13.0,0.0,0.0,0.0,0.0,0.0,0.0,0.0,0.0,0.0,0
9.0,-1.0,-19.0,-7.0,1.0,0.0,-22.0,1.0,0.0,0.0,0.0,0.0,0.0,0.0,0.0,0.0,0
22.0,6.0,-21.0,-7.0,-3.0,-5.0,-30.0,5.0,0.0,0.0,0.0,0.0,0.0,0.0,0.0,0.0,0
14.0,-9.0,-16.0,-10.0,-13.0,5.0,-17.0,4.0,0.0,0.0,0.0,0.0,0.0,0.0,0.0,0.0,0
12.0,-17.0,-22.0,-13.0,-8.0,-1.0,-19.0,5.0,0.0,0.0,0.0,0.0,0.0,0.0,0.0,0.0,0
13.0,-8.0,-3.0,-2.0,-8.0,-2.0,-28.0,10.0,0.0,0.0,0.0,0.0,0.0,0.0,0.0,0.0,0
3.0,-3.0,9.0,10.0,-1.0,-4.0,-20.0,8.0,0.0,0.0,0.0,0.0,0.0,0.0,0.0,0.0,0
-10.0,-11.0,-7.0,4.0,-8.0,-2.0,-11.0,6.0,0.0,0.0,0.0,0.0,0.0,0.0,0.0,0.0,0
1.0,-16.0,-17.0,6.0,0.0,1.0,-7.0,10.0,0.0,0.0,0.0,0.0,0.0,0.0,0.0,0.0,0
-12.0,-25.0,-19.0,0.0,8.0,10.0,10.0,-1.0,0.0,0.0,0.0,0.0,0.0,0.0,0.0,0.0,0
-22.0,-26.0,-9.0,-1.0,-2.0,5.0,18.0,-5.0,0.0,0.0,0.0,0.0,0.0,0.0,0.0,0.0,0
-23.0,15.0,16.0,-1.0,-3.0,-5.0,21.0,-15.0,0.0,0.0,0.0,0.0,0.0,0.0,0.0,0.0,0
-18.0,67.0,41.0,1.0,-3.0,-4.0,31.0,-17.0,0.0,0.0,0.0,0.0,0.0,0.0,0.0,0.0,0
-6.0,67.0,37.0,1.0,2.0,-7.0,24.0,-18.0,0.0,0.0,0.0,0.0,0.0,0.0,0.0,0.0,0
-4.0,33.0,21.0,-1.0,4.0,-3.0,9.0,-10.0,0.0,0.0,0.0,0.0,0.0,0.0,0.0,0.0,0
-7.0,-8.0,4.0,-3.0,2.0,-5.0,6.0,-9.0,0.0,0.0,0.0,0.0,0.0,0.0,0.0,0.0,0
-17.0,-37.0,-5.0,-12.0,-4.0,-3.0,2.0,-7.0,0.0,0.0,0.0,0.0,0.0,0.0,0.0,0.0,0
-17.0,-46.0,-9.0,-9.0,-6.0,-3.0,-2.0,-8.0,0.0,0.0,0.0,0.0,0.0,0.0,0.0,0.0,0
-4.0,-39.0,-22.0,-8.0,-4.0,-2.0,0.0,-5.0,0.0,0.0,0.0,0.0,0.0,0.0,0.0,0.0,0
12.0,-26.0,-24.0,-10.0,-2.0,0.0,-4.0,-3.0,0.0,0.0,0.0,0.0,0.0,0.0,0.0,0.0,0
20.0,-17.0,-13.0,-6.0,-8.0,-2.0,-11.0,-8.0,0.0,0.0,0.0,0.0,0.0,0.0,0.0,0.0,0
19.0,-7.0,-9.0,0.0,-8.0,-8.0,-18.0,2.0,0.0,0.0,0.0,0.0,0.0,0.0,0.0,0.0,0
29.0,13.0,-12.0,0.0,-8.0,-11.0,-25.0,7.0,0.0,0.0,0.0,0.0,0.0,0.0,0.0,0.0,0
14.0,41.0,-4.0,2.0,-6.0,-5.0,-28.0,11.0,0.0,0.0,0.0,0.0,0.0,0.0,0.0,0.0,0
6.0,49.0,-5.0,-4.0,-9.0,-8.0,-29.0,12.0,0.0,0.0,0.0,0.0,0.0,0.0,0.0,0.0,0
4.0,24.0,-17.0,-8.0,-10.0,-4.0,-29.0,9.0,0.0,0.0,0.0,0.0,0.0,0.0,0.0,0.0,0
-6.0,-22.0,-10.0,9.0,4.0,9.0,-15.0,10.0,0.0,0.0,0.0,0.0,0.0,0.0,0.0,0.0,0
-21.0,-49.0,-2.0,18.0,9.0,15.0,-4.0,10.0,0.0,0.0,0.0,0.0,0.0,0.0,0.0,0.0,0
-22.0,-55.0,-11.0,9.0,5.0,7.0,-2.0,1.0,0.0,0.0,0.0,0.0,0.0,0.0,0.0,0.0,0
-20.0,-40.0,-1.0,-3.0,0.0,5.0,10.0,-5.0,0.0,0.0,0.0,0.0,0.0,0.0,0.0,0.0,0
-17.0,-20.0,2.0,-14.0,-2.0,-1.0,20.0,-4.0,0.0,0.0,0.0,0.0,0.0,0.0,0.0,0.0,0
3.0,14.0,12.0,-9.0,-5.0,-5.0,21.0,-7.0,0.0,0.0,0.0,0.0,0.0,0.0,0.0,0.0,0
1.0,35.0,28.0,-6.0,0.0,-1.0,29.0,-18.0,0.0,0.0,0.0,0.0,0.0,0.0,0.0,0.0,0
-7.0,32.0,18.0,-11.0,-2.0,-3.0,17.0,-21.0,0.0,0.0,0.0,0.0,0.0,0.0,0.0,0.0,0
-15.0,19.0,12.0,-2.0,-1.0,-3.0,12.0,-13.0,0.0,0.0,0.0,0.0,0.0,0.0,0.0,0.0,0
-15.0,14.0,-4.0,-9.0,-5.0,-4.0,8.0,-6.0,0.0,0.0,0.0,0.0,0.0,0.0,0.0,0.0,0
-12.0,3.0,-6.0,-19.0,-6.0,-11.0,5.0,-12.0,0.0,0.0,0.0,0.0,0.0,0.0,0.0,0.0,0
-12.0,0.0,2.0,-2.0,-2.0,-12.0,0.0,-9.0,0.0,0.0,0.0,0.0,0.0,0.0,0.0,0.0,0
1.0,-5.0,-8.0,8.0,-1.0,-10.0,-4.0,-7.0,0.0,0.0,0.0,0.0,0.0,0.0,0.0,0.0,0
9.0,-8.0,-1.0,17.0,3.0,-1.0,-11.0,2.0,0.0,0.0,0.0,0.0,0.0,0.0,0.0,0.0,0
6.0,-5.0,-1.0,19.0,0.0,-3.0,-9.0,2.0,0.0,0.0,0.0,0.0,0.0,0.0,0.0,0.0,0
16.0,-12.0,-1.0,9.0,-5.0,-6.0,-19.0,-2.0,0.0,0.0,0.0,0.0,0.0,0.0,0.0,0.0,0
14.0,-20.0,-7.0,-5.0,-10.0,2.0,-28.0,5.0,0.0,0.0,0.0,0.0,0.0,0.0,0.0,0.0,0
12.0,-16.0,-14.0,-14.0,-9.0,3.0,-13.0,5.0,0.0,0.0,0.0,0.0,0.0,0.0,0.0,0.0,0
9.0,-10.0,-22.0,-22.0,-9.0,2.0,-16.0,4.0,0.0,0.0,0.0,0.0,0.0,0.0,0.0,0.0,0
12.0,-8.0,-32.0,-16.0,-8.0,-7.0,-22.0,13.0,0.0,0.0,0.0,0.0,0.0,0.0,0.0,0.0,0
8.0,-10.0,-19.0,-9.0,-1.0,-1.0,-16.0,7.0,0.0,0.0,0.0,0.0,0.0,0.0,0.0,0.0,0
7.0,-7.0,-21.0,-8.0,-2.0,10.0,-9.0,3.0,0.0,0.0,0.0,0.0,0.0,0.0,0.0,0.0,0
-5.0,-3.0,-16.0,-2.0,1.0,7.0,-11.0,6.0,0.0,0.0,0.0,0.0,0.0,0.0,0.0,0.0,0
-15.0,9.0,2.0,4.0,8.0,-2.0,5.0,2.0,0.0,0.0,0.0,0.0,0.0,0.0,0.0,0.0,0
-21.0,7.0,25.0,12.0,5.0,-5.0,5.0,-12.0,0.0,0.0,0.0,0.0,0.0,0.0,0.0,0.0,0
-24.0,5.0,24.0,11.0,3.0,-2.0,18.0,-14.0,0.0,0.0,0.0,0.0,0.0,0.0,0.0,0.0,0
-33.0,8.0,26.0,17.0,0.0,4.0,34.0,-17.0,0.0,0.0,0.0,0.0,0.0,0.0,0.0,0.0,0
-27.0,7.0,24.0,3.0,-10.0,-3.0,28.0,-8.0,0.0,0.0,0.0,0.0,0.0,0.0,0.0,0.0,0
-17.0,1.0,18.0,-3.0,-6.0,-1.0,13.0,-10.0,0.0,0.0,0.0,0.0,0.0,0.0,0.0,0.0,0
-7.0,3.0,19.0,6.0,-2.0,-4.0,9.0,-12.0,0.0,0.0,0.0,0.0,0.0,0.0,0.0,0.0,0
-1.0,3.0,1.0,3.0,1.0,-5.0,2.0,-13.0,0.0,0.0,0.0,0.0,0.0,0.0,0.0,0.0,0
4.0,-7.0,-19.0,-20.0,-1.0,-8.0,-5.0,-15.0,0.0,0.0,0.0,0.0,0.0,0.0,0.0,0.0,0
1.0,-13.0,-26.0,-30.0,-12.0,-13.0,-6.0,-13.0,0.0,0.0,0.0,0.0,0.0,0.0,0.0,0.0,0
7.0,3.0,-14.0,-18.0,-10.0,-13.0,-5.0,-4.0,0.0,0.0,0.0,0.0,0.0,0.0,0.0,0.0,0
9.0,5.0,-3.0,-7.0,-10.0,-8.0,-11.0,4.0,0.0,0.0,0.0,0.0,0.0,0.0,0.0,0.0,0
13.0,-5.0,-11.0,-3.0,-4.0,-3.0,-25.0,6.0,0.0,0.0,0.0,0.0,0.0,0.0,0.0,0.0,0
23.0,-6.0,-6.0,12.0,2.0,-1.0,-25.0,15.0,0.0,0.0,0.0,0.0,0.0,0.0,0.0,0.0,0
15.0,-9.0,-11.0,2.0,-2.0,1.0,-18.0,12.0,0.0,0.0,0.0,0.0,0.0,0.0,0.0,0.0,0
7.0,-19.0,-25.0,-4.0,-5.0,0.0,-16.0,15.0,0.0,0.0,0.0,0.0,0.0,0.0,0.0,0.0,0
6.0,-19.0,-32.0,-4.0,-10.0,-1.0,-27.0,9.0,0.0,0.0,0.0,0.0,0.0,0.0,0.0,0.0,0
11.0,-10.0,-16.0,3.0,-5.0,4.0,-17.0,5.0,0.0,0.0,0.0,0.0,0.0,0.0,0.0,0.0,0
3.0,-1.0,-10.0,-2.0,4.0,2.0,-5.0,5.0,0.0,0.0,0.0,0.0,0.0,0.0,0.0,0.0,0
-2.0,-5.0,-4.0,3.0,5.0,10.0,-8.0,0.0,0.0,0.0,0.0,0.0,0.0,0.0,0.0,0.0,0
-13.0,6.0,6.0,12.0,3.0,12.0,6.0,-8.0,0.0,0.0,0.0,0.0,0.0,0.0,0.0,0.0,0
-17.0,6.0,18.0,4.0,4.0,1.0,11.0,-7.0,0.0,0.0,0.0,0.0,0.0,0.0,0.0,0.0,0
-21.0,12.0,19.0,-9.0,0.0,2.0,27.0,-14.0,0.0,0.0,0.0,0.0,0.0,0.0,0.0,0.0,0
-24.0,11.0,28.0,-3.0,-6.0,-10.0,33.0,-11.0,0.0,0.0,0.0,0.0,0.0,0.0,0.0,0.0,0
-26.0,-1.0,25.0,-9.0,-12.0,-16.0,21.0,-8.0,0.0,0.0,0.0,0.0,0.0,0.0,0.0,0.0,0
-26.0,-13.0,4.0,-8.0,-6.0,-4.0,15.0,-9.0,0.0,0.0,0.0,0.0,0.0,0.0,0.0,0.0,0
-24.0,-10.0,-5.0,-13.0,6.0,-1.0,12.0,-9.0,0.0,0.0,0.0,0.0,0.0,0.0,0.0,0.0,0
-10.0,9.0,-1.0,-7.0,6.0,-3.0,8.0,-16.0,0.0,0.0,0.0,0.0,0.0,0.0,0.0,0.0,0
15.0,15.0,-8.0,-5.0,-3.0,-3.0,-2.0,-11.0,0.0,0.0,0.0,0.0,0.0,0.0,0.0,0.0,0
15.0,6.0,-14.0,-2.0,-10.0,-5.0,-7.0,-9.0,0.0,0.0,0.0,0.0,0.0,0.0,0.0,0.0,0
13.0,0.0,0.0,11.0,-2.0,-7.0,-13.0,-3.0,0.0,0.0,0.0,0.0,0.0,0.0,0.0,0.0,0
18.0,3.0,21.0,22.0,0.0,-5.0,-16.0,-3.0,0.0,0.0,0.0,0.0,0.0,0.0,0.0,0.0,0
17.0,0.0,3.0,0.0,-6.0,-4.0,-18.0,3.0,0.0,0.0,0.0,0.0,0.0,0.0,0.0,0.0,0
13.0,-14.0,-33.0,-19.0,-12.0,-3.0,-25.0,15.0,0.0,0.0,0.0,0.0,0.0,0.0,0.0,0.0,0
-6.0,-25.0,-41.0,-17.0,-4.0,-4.0,-19.0,8.0,0.0,0.0,0.0,0.0,0.0,0.0,0.0,0.0,0
-3.0,-26.0,-35.0,-11.0,3.0,-6.0,-19.0,3.0,0.0,0.0,0.0,0.0,0.0,0.0,0.0,0.0,0
12.0,-24.0,-27.0,-12.0,2.0,2.0,-21.0,10.0,0.0,0.0,0.0,0.0,0.0,0.0,0.0,0.0,0
3.0,-16.0,-17.0,-7.0,-2.0,11.0,-10.0,10.0,0.0,0.0,0.0,0.0,0.0,0.0,0.0,0.0,0
-1.0,-12.0,-12.0,-8.0,-6.0,6.0,-8.0,7.0,0.0,0.0,0.0,0.0,0.0,0.0,0.0,0.0,0
-1.0,6.0,-1.0,-12.0,-6.0,2.0,-9.0,3.0,0.0,0.0,0.0,0.0,0.0,0.0,0.0,0.0,0
-6.0,17.0,20.0,-7.0,1.0,-5.0,4.0,-4.0,0.0,0.0,0.0,0.0,0.0,0.0,0.0,0.0,0
-10.0,16.0,17.0,2.0,-2.0,-6.0,10.0,-8.0,0.0,0.0,0.0,0.0,0.0,0.0,0.0,0.0,0
-21.0,7.0,17.0,0.0,-6.0,-1.0,22.0,-13.0,0.0,0.0,0.0,0.0,0.0,0.0,0.0,0.0,0
-28.0,9.0,24.0,5.0,1.0,-3.0,32.0,-18.0,0.0,0.0,0.0,0.0,0.0,0.0,0.0,0.0,0
-25.0,6.0,13.0,9.0,1.0,3.0,30.0,-17.0,0.0,0.0,0.0,0.0,0.0,0.0,0.0,0.0,0
-12.0,5.0,17.0,6.0,3.0,-7.0,20.0,-8.0,0.0,0.0,0.0,0.0,0.0,0.0,0.0,0.0,0
-5.0,5.0,7.0,8.0,0.0,-4.0,7.0,-10.0,0.0,0.0,0.0,0.0,0.0,0.0,0.0,0.0,0
-9.0,-4.0,1.0,-1.0,-4.0,1.0,-3.0,-10.0,0.0,0.0,0.0,0.0,0.0,0.0,0.0,0.0,0
-7.0,-12.0,-7.0,-5.0,-5.0,-8.0,2.0,-6.0,0.0,0.0,0.0,0.0,0.0,0.0,0.0,0.0,0
-6.0,-17.0,-3.0,0.0,6.0,-6.0,-6.0,-6.0,0.0,0.0,0.0,0.0,0.0,0.0,0.0,0.0,0
-3.0,-9.0,1.0,-5.0,7.0,-6.0,-13.0,3.0,0.0,0.0,0.0,0.0,0.0,0.0,0.0,0.0,0
13.0,-2.0,5.0,1.0,-1.0,-4.0,-10.0,2.0,0.0,0.0,0.0,0.0,0.0,0.0,0.0,0.0,0
26.0,8.0,-3.0,-6.0,-14.0,-5.0,-15.0,4.0,0.0,0.0,0.0,0.0,0.0,0.0,0.0,0.0,0
34.0,10.0,-19.0,-10.0,-12.0,-1.0,-24.0,7.0,0.0,0.0,0.0,0.0,0.0,0.0,0.0,0.0,0
21.0,4.0,-33.0,-23.0,-14.0,-5.0,-21.0,5.0,0.0,0.0,0.0,0.0,0.0,0.0,0.0,0.0,0
14.0,-7.0,-34.0,-21.0,-14.0,-8.0,-23.0,3.0,0.0,0.0,0.0,0.0,0.0,0.0,0.0,0.0,0
13.0,-17.0,-34.0,-10.0,-8.0,-5.0,-30.0,-1.0,0.0,0.0,0.0,0.0,0.0,0.0,0.0,0.0,0
2.0,-16.0,-25.0,-3.0,-4.0,1.0,-23.0,8.0,0.0,0.0,0.0,0.0,0.0,0.0,0.0,0.0,0
-18.0,-16.0,-22.0,0.0,-1.0,2.0,-10.0,4.0,0.0,0.0,0.0,0.0,0.0,0.0,0.0,0.0,0
-28.0,-30.0,-16.0,1.0,3.0,5.0,-1.0,7.0,0.0,0.0,0.0,0.0,0.0,0.0,0.0,0.0,0
-37.0,-27.0,0.0,10.0,7.0,7.0,11.0,5.0,0.0,0.0,0.0,0.0,0.0,0.0,0.0,0.0,0
-32.0,-3.0,27.0,10.0,6.0,9.0,21.0,-3.0,0.0,0.0,0.0,0.0,0.0,0.0,0.0,0.0,0
-14.0,14.0,45.0,13.0,9.0,6.0,22.0,-9.0,0.0,0.0,0.0,0.0,0.0,0.0,0.0,0.0,0
-9.0,30.0,49.0,19.0,6.0,-6.0,32.0,-22.0,0.0,0.0,0.0,0.0,0.0,0.0,0.0,0.0,0
1.0,35.0,38.0,10.0,4.0,-7.0,14.0,-14.0,0.0,0.0,0.0,0.0,0.0,0.0,0.0,0.0,0
10.0,21.0,22.0,-6.0,1.0,-9.0,9.0,-8.0,0.0,0.0,0.0,0.0,0.0,0.0,0.0,0.0,0
0.0,4.0,6.0,-13.0,-10.0,-6.0,12.0,-8.0,0.0,0.0,0.0,0.0,0.0,0.0,0.0,0.0,0
0.0,4.0,-16.0,-15.0,-15.0,-5.0,8.0,-16.0,0.0,0.0,0.0,0.0,0.0,0.0,0.0,0.0,0
1.0,6.0,-25.0,-17.0,-10.0,-6.0,-2.0,-11.0,0.0,0.0,0.0,0.0,0.0,0.0,0.0,0.0,0
-4.0,-7.0,-21.0,-17.0,-7.0,-9.0,-6.0,-11.0,0.0,0.0,0.0,0.0,0.0,0.0,0.0,0.0,0
-1.0,-18.0,-17.0,-12.0,-10.0,-11.0,-9.0,-7.0,0.0,0.0,0.0,0.0,0.0,0.0,0.0,0.0,0
-1.0,-14.0,-17.0,-7.0,-7.0,-12.0,-13.0,-4.0,0.0,0.0,0.0,0.0,0.0,0.0,0.0,0.0,0
5.0,-12.0,-13.0,-9.0,-4.0,-9.0,-26.0,3.0,0.0,0.0,0.0,0.0,0.0,0.0,0.0,0.0,0
18.0,-12.0,-17.0,-4.0,0.0,-8.0,-26.0,11.0,0.0,0.0,0.0,0.0,0.0,0.0,0.0,0.0,0
8.0,-4.0,-7.0,9.0,0.0,4.0,-18.0,11.0,0.0,0.0,0.0,0.0,0.0,0.0,0.0,0.0,0
13.0,-12.0,-14.0,9.0,10.0,5.0,-20.0,12.0,0.0,0.0,0.0,0.0,0.0,0.0,0.0,0.0,0
21.0,-15.0,-18.0,1.0,2.0,3.0,-25.0,13.0,0.0,0.0,0.0,0.0,0.0,0.0,0.0,0.0,0
15.0,-15.0,-9.0,9.0,-6.0,1.0,-15.0,5.0,0.0,0.0,0.0,0.0,0.0,0.0,0.0,0.0,0
7.0,-17.0,-2.0,7.0,-4.0,-1.0,-10.0,1.0,0.0,0.0,0.0,0.0,0.0,0.0,0.0,0.0,0
-12.0,-30.0,-2.0,8.0,-1.0,4.0,-7.0,4.0,0.0,0.0,0.0,0.0,0.0,0.0,0.0,0.0,0
-23.0,6.0,16.0,1.0,9.0,2.0,9.0,1.0,0.0,0.0,0.0,0.0,0.0,0.0,0.0,0.0,0
-23.0,33.0,25.0,-4.0,-2.0,2.0,20.0,-2.0,0.0,0.0,0.0,0.0,0.0,0.0,0.0,0.0,0
-28.0,35.0,25.0,-2.0,-4.0,-3.0,25.0,-8.0,0.0,0.0,0.0,0.0,0.0,0.0,0.0,0.0,0
-29.0,22.0,21.0,-6.0,-1.0,-1.0,29.0,-17.0,0.0,0.0,0.0,0.0,0.0,0.0,0.0,0.0,0
-13.0,6.0,7.0,-9.0,-1.0,-6.0,20.0,-16.0,0.0,0.0,0.0,0.0,0.0,0.0,0.0,0.0,0
-18.0,-5.0,-1.0,-17.0,-10.0,-6.0,6.0,-11.0,0.0,0.0,0.0,0.0,0.0,0.0,0.0,0.0,0
-10.0,-5.0,-11.0,-15.0,-7.0,-9.0,8.0,-8.0,0.0,0.0,0.0,0.0,0.0,0.0,0.0,0.0,0
4.0,2.0,-12.0,-10.0,-4.0,-6.0,8.0,-17.0,0.0,0.0,0.0,0.0,0.0,0.0,0.0,0.0,0
19.0,-10.0,-10.0,-10.0,-4.0,-10.0,3.0,-9.0,0.0,0.0,0.0,0.0,0.0,0.0,0.0,0.0,0
17.0,-11.0,-5.0,6.0,-4.0,-7.0,-9.0,-2.0,0.0,0.0,0.0,0.0,0.0,0.0,0.0,0.0,3
10.0,-5.0,-5.0,19.0,-1.0,2.0,-16.0,1.0,0.0,0.0,0.0,0.0,0.0,0.0,0.0,0.0,3
-3.0,-5.0,-1.0,10.0,-2.0,0.0,-11.0,-2.0,0.0,0.0,0.0,0.0,0.0,0.0,0.0,0.0,3
-7.0,-7.0,-2.0,-1.0,1.0,-6.0,-15.0,-5.0,0.0,0.0,0.0,0.0,0.0,0.0,0.0,0.0,3
4.0,-16.0,-13.0,-5.0,1.0,-11.0,-22.0,1.0,0.0,0.0,0.0,0.0,0.0,0.0,0.0,0.0,3
7.0,-11.0,-11.0,-6.0,2.0,-2.0,-15.0,7.0,0.0,0.0,0.0,0.0,0.0,0.0,0.0,0.0,3
14.0,-15.0,-12.0,-5.0,-7.0,5.0,-27.0,11.0,0.0,0.0,0.0,0.0,0.0,0.0,0.0,0.0,3
22.0,4.0,-24.0,-11.0,-10.0,2.0,-31.0,14.0,0.0,0.0,0.0,0.0,0.0,0.0,0.0,0.0,3
12.0,20.0,-23.0,-11.0,-7.0,2.0,-21.0,11.0,0.0,0.0,0.0,0.0,0.0,0.0,0.0,0.0,3
-1.0,20.0,-17.0,-5.0,-9.0,-3.0,-9.0,5.0,0.0,0.0,0.0,0.0,0.0,0.0,0.0,0.0,3
-2.0,-4.0,-11.0,-6.0,-6.0,-3.0,-2.0,4.0,0.0,0.0,0.0,0.0,0.0,0.0,0.0,0.0,3
-18.0,-12.0,-1.0,-1.0,1.0,-2.0,3.0,-3.0,0.0,0.0,0.0,0.0,0.0,0.0,0.0,0.0,3
-29.0,-21.0,15.0,2.0,-1.0,5.0,18.0,-13.0,0.0,0.0,0.0,0.0,0.0,0.0,0.0,0.0,3
-27.0,-16.0,20.0,5.0,4.0,3.0,33.0,-9.0,0.0,0.0,0.0,0.0,0.0,0.0,0.0,0.0,3
-26.0,-7.0,30.0,5.0,6.0,-5.0,34.0,-16.0,0.0,0.0,0.0,0.0,0.0,0.0,0.0,0.0,3
-16.0,3.0,22.0,5.0,9.0,-1.0,15.0,-17.0,0.0,0.0,0.0,0.0,0.0,0.0,0.0,0.0,3
-2.0,9.0,16.0,-2.0,1.0,-3.0,3.0,-10.0,0.0,0.0,0.0,0.0,0.0,0.0,0.0,0.0,3
-9.0,7.0,9.0,5.0,-3.0,-10.0,5.0,-12.0,0.0,0.0,0.0,0.0,0.0,0.0,0.0,0.0,3
-13.0,11.0,2.0,3.0,-5.0,-6.0,7.0,-11.0,0.0,0.0,0.0,0.0,0.0,0.0,0.0,0.0,3
-2.0,18.0,-13.0,-11.0,-11.0,-4.0,10.0,-8.0,0.0,0.0,0.0,0.0,0.0,0.0,0.0,0.0,3
11.0,8.0,-21.0,-19.0,-10.0,-7.0,-9.0,-12.0,0.0,0.0,0.0,0.0,0.0,0.0,0.0,0.0,3
18.0,4.0,-16.0,-22.0,-11.0,-13.0,-17.0,-6.0,0.0,0.0,0.0,0.0,0.0,0.0,0.0,0.0,3
16.0,-3.0,-7.0,-11.0,-3.0,-6.0,-11.0,1.0,0.0,0.0,0.0,0.0,0.0,0.0,0.0,0.0,3
8.0,-24.0,-18.0,-3.0,6.0,2.0,-11.0,3.0,0.0,0.0,0.0,0.0,0.0,0.0,0.0,0.0,3
7.0,-32.0,-18.0,1.0,7.0,4.0,-27.0,8.0,0.0,0.0,0.0,0.0,0.0,0.0,0.0,0.0,3
4.0,-6.0,6.0,13.0,6.0,5.0,-22.0,6.0,0.0,0.0,0.0,0.0,0.0,0.0,0.0,0.0,3
14.0,1.0,4.0,13.0,-1.0,8.0,-20.0,6.0,0.0,0.0,0.0,0.0,0.0,0.0,0.0,0.0,3
13.0,-11.0,-19.0,-2.0,-10.0,-2.0,-24.0,12.0,0.0,0.0,0.0,0.0,0.0,0.0,0.0,0.0,3
4.0,-5.0,-24.0,-1.0,-11.0,-4.0,-21.0,4.0,0.0,0.0,0.0,0.0,0.0,0.0,0.0,0.0,3
-9.0,-1.0,-21.0,-9.0,-13.0,-4.0,-4.0,7.0,0.0,0.0,0.0,0.0,0.0,0.0,0.0,0.0,3
-9.0,-13.0,-15.0,-9.0,-6.0,-3.0,-2.0,0.0,0.0,0.0,0.0,0.0,0.0,0.0,0.0,0.0,3
-22.0,-8.0,0.0,-7.0,-2.0,2.0,5.0,1.0,0.0,0.0,0.0,0.0,0.0,0.0,0.0,0.0,3
-23.0,0.0,8.0,-6.0,2.0,4.0,12.0,-3.0,0.0,0.0,0.0,0.0,0.0,0.0,0.0,0.0,3
-19.0,11.0,16.0,-1.0,8.0,-5.0,25.0,-8.0,0.0,0.0,0.0,0.0,0.0,0.0,0.0,0.0,3
-21.0,18.0,29.0,2.0,11.0,-10.0,30.0,-19.0,0.0,0.0,0.0,0.0,0.0,0.0,0.0,0.0,3
-9.0,16.0,27.0,1.0,3.0,1.0,18.0,-16.0,0.0,0.0,0.0,0.0,0.0,0.0,0.0,0.0,3
-3.0,14.0,20.0,3.0,1.0,5.0,12.0,-10.0,0.0,0.0,0.0,0.0,0.0,0.0,0.0,0.0,3
-5.0,4.0,9.0,0.0,-4.0,2.0,8.0,-8.0,0.0,0.0,0.0,0.0,0.0,0.0,0.0,0.0,3
-11.0,-11.0,-15.0,-14.0,-11.0,0.0,5.0,-13.0,0.0,0.0,0.0,0.0,0.0,0.0,0.0,0.0,3
-24.0,-17.0,-9.0,-15.0,-13.0,-14.0,-2.0,-17.0,0.0,0.0,0.0,0.0,0.0,0.0,0.0,0.0,3
-3.0,-4.0,-2.0,-7.0,-3.0,-19.0,-15.0,-5.0,0.0,0.0,0.0,0.0,0.0,0.0,0.0,0.0,3
18.0,2.0,3.0,-2.0,1.0,-7.0,-10.0,2.0,0.0,0.0,0.0,0.0,0.0,0.0,0.0,0.0,3
19.0,-4.0,-5.0,0.0,-6.0,-7.0,-6.0,6.0,0.0,0.0,0.0,0.0,0.0,0.0,0.0,0.0,3
20.0,0.0,-15.0,1.0,-5.0,-3.0,-12.0,8.0,0.0,0.0,0.0,0.0,0.0,0.0,0.0,0.0,3
27.0,-4.0,-25.0,2.0,-6.0,-3.0,-17.0,6.0,0.0,0.0,0.0,0.0,0.0,0.0,0.0,0.0,3
8.0,-6.0,-21.0,2.0,-2.0,-1.0,-20.0,8.0,0.0,0.0,0.0,0.0,0.0,0.0,0.0,0.0,3
13.0,-14.0,-18.0,-6.0,4.0,0.0,-25.0,0.0,0.0,0.0,0.0,0.0,0.0,0.0,0.0,0.0,3
13.0,-9.0,-15.0,-3.0,1.0,4.0,-28.0,8.0,0.0,0.0,0.0,0.0,0.0,0.0,0.0,0.0,3
13.0,2.0,-10.0,-4.0,-2.0,1.0,-20.0,12.0,0.0,0.0,0.0,0.0,0.0,0.0,0.0,0.0,3
-2.0,-2.0,-13.0,-6.0,-4.0,-2.0,-11.0,6.0,0.0,0.0,0.0,0.0,0.0,0.0,0.0,0.0,3
-20.0,-17.0,0.0,-6.0,-6.0,0.0,1.0,3.0,0.0,0.0,0.0,0.0,0.0,0.0,0.0,0.0,3
-33.0,-30.0,6.0,0.0,0.0,1.0,8.0,-3.0,0.0,0.0,0.0,0.0,0.0,0.0,0.0,0.0,3
-41.0,-32.0,6.0,10.0,-1.0,3.0,8.0,-4.0,0.0,0.0,0.0,0.0,0.0,0.0,0.0,0.0,3
-33.0,-11.0,14.0,6.0,7.0,4.0,26.0,-11.0,0.0,0.0,0.0,0.0,0.0,0.0,0.0,0.0,3
-14.0,23.0,18.0,5.0,5.0,8.0,37.0,-20.0,0.0,0.0,0.0,0.0,0.0,0.0,0.0,0.0,3
8.0,38.0,11.0,-7.0,4.0,-2.0,20.0,-15.0,0.0,0.0,0.0,0.0,0.0,0.0,0.0,0.0,3
10.0,45.0,13.0,-6.0,-3.0,-10.0,10.0,-6.0,0.0,0.0,0.0,0.0,0.0,0.0,0.0,0.0,3
9.0,31.0,17.0,-4.0,-6.0,-9.0,4.0,-8.0,0.0,0.0,0.0,0.0,0.0,0.0,0.0,0.0,3
1.0,11.0,9.0,-7.0,-8.0,-15.0,7.0,-13.0,0.0,0.0,0.0,0.0,0.0,0.0,0.0,0.0,3
-5.0,-15.0,-14.0,-8.0,-13.0,-13.0,6.0,-17.0,0.0,0.0,0.0,0.0,0.0,0.0,0.0,0.0,3
-3.0,-21.0,-16.0,-15.0,-13.0,-9.0,-11.0,-6.0,0.0,0.0,0.0,0.0,0.0,0.0,0.0,0.0,3
-4.0,-16.0,-8.0,-5.0,-4.0,-10.0,-16.0,-4.0,0.0,0.0,0.0,0.0,0.0,0.0,0.0,0.0,3
-21.0,-30.0,-1.0,2.0,1.0,3.0,-9.0,1.0,0.0,0.0,0.0,0.0,0.0,0.0,0.0,0.0,3
-6.0,-28.0,-10.0,-1.0,4.0,6.0,-10.0,8.0,0.0,0.0,0.0,0.0,0.0,0.0,0.0,0.0,3
19.0,-12.0,-24.0,0.0,4.0,6.0,-15.0,14.0,0.0,0.0,0.0,0.0,0.0,0.0,0.0,0.0,3
23.0,6.0,-14.0,-3.0,-4.0,-1.0,-15.0,13.0,0.0,0.0,0.0,0.0,0.0,0.0,0.0,0.0,3
23.0,8.0,-5.0,-3.0,-1.0,-6.0,-22.0,3.0,0.0,0.0,0.0,0.0,0.0,0.0,0.0,0.0,3
29.0,2.0,-16.0,5.0,4.0,-6.0,-33.0,8.0,0.0,0.0,0.0,0.0,0.0,0.0,0.0,0.0,3
18.0,-1.0,-15.0,4.0,-2.0,-4.0,-25.0,7.0,0.0,0.0,0.0,0.0,0.0,0.0,0.0,0.0,3
-1.0,-11.0,-12.0,-8.0,-5.0,6.0,-16.0,-5.0,0.0,0.0,0.0,0.0,0.0,0.0,0.0,0.0,3
-6.0,-12.0,-16.0,-11.0,-4.0,3.0,-5.0,0.0,0.0,0.0,0.0,0.0,0.0,0.0,0.0,0.0,3
-18.0,-4.0,-9.0,-13.0,-1.0,3.0,7.0,2.0,0.0,0.0,0.0,0.0,0.0,0.0,0.0,0.0,3
-19.0,-1.0,-5.0,-10.0,-6.0,1.0,12.0,-5.0,0.0,0.0,0.0,0.0,0.0,0.0,0.0,0.0,3
-27.0,2.0,2.0,-4.0,-4.0,0.0,19.0,-9.0,0.0,0.0,0.0,0.0,0.0,0.0,0.0,0.0,3
-31.0,12.0,26.0,8.0,-2.0,0.0,29.0,-16.0,0.0,0.0,0.0,0.0,0.0,0.0,0.0,0.0,3
-29.0,5.0,30.0,8.0,4.0,-2.0,27.0,-9.0,0.0,0.0,0.0,0.0,0.0,0.0,0.0,0.0,3
-15.0,9.0,26.0,2.0,0.0,1.0,12.0,-13.0,0.0,0.0,0.0,0.0,0.0,0.0,0.0,0.0,3
-5.0,4.0,18.0,10.0,-2.0,0.0,7.0,-10.0,0.0,0.0,0.0,0.0,0.0,0.0,0.0,0.0,3
-14.0,-8.0,7.0,7.0,-1.0,-13.0,6.0,-11.0,0.0,0.0,0.0,0.0,0.0,0.0,0.0,0.0,3
-4.0,-14.0,-2.0,-2.0,1.0,-9.0,-1.0,-9.0,0.0,0.0,0.0,0.0,0.0,0.0,0.0,0.0,3
10.0,3.0,-4.0,1.0,5.0,-8.0,-3.0,-3.0,0.0,0.0,0.0,0.0,0.0,0.0,0.0,0.0,3
13.0,18.0,0.0,-2.0,5.0,-5.0,-7.0,-3.0,0.0,0.0,0.0,0.0,0.0,0.0,0.0,0.0,3
7.0,13.0,-7.0,-11.0,0.0,-1.0,-10.0,-3.0,0.0,0.0,0.0,0.0,0.0,0.0,0.0,0.0,3
9.0,-5.0,-23.0,-8.0,-17.0,-4.0,-16.0,-4.0,0.0,0.0,0.0,0.0,0.0,0.0,0.0,0.0,3
20.0,-23.0,-32.0,-9.0,-19.0,-7.0,-22.0,5.0,0.0,0.0,0.0,0.0,0.0,0.0,0.0,0.0,3
16.0,-25.0,-26.0,-14.0,-11.0,-3.0,-17.0,9.0,0.0,0.0,0.0,0.0,0.0,0.0,0.0,0.0,3
21.0,-10.0,-13.0,-7.0,-8.0,-3.0,-18.0,10.0,0.0,0.0,0.0,0.0,0.0,0.0,0.0,0.0,3
25.0,5.0,0.0,1.0,-3.0,3.0,-32.0,15.0,0.0,0.0,0.0,0.0,0.0,0.0,0.0,0.0,3
12.0,0.0,-9.0,4.0,1.0,5.0,-23.0,8.0,0.0,0.0,0.0,0.0,0.0,0.0,0.0,0.0,3
-5.0,-10.0,-28.0,-9.0,5.0,0.0,-8.0,6.0,0.0,0.0,0.0,0.0,0.0,0.0,0.0,0.0,3
-17.0,-14.0,-31.0,-10.0,4.0,-2.0,-3.0,-1.0,0.0,0.0,0.0,0.0,0.0,0.0,0.0,0.0,3
-30.0,-17.0,-19.0,-6.0,0.0,0.0,9.0,-8.0,0.0,0.0,0.0,0.0,0.0,0.0,0.0,0.0,3
-38.0,-17.0,2.0,8.0,-2.0,6.0,16.0,-2.0,0.0,0.0,0.0,0.0,0.0,0.0,0.0,0.0,3
-38.0,-11.0,28.0,14.0,1.0,1.0,21.0,-11.0,0.0,0.0,0.0,0.0,0.0,0.0,0.0,0.0,3
-25.0,9.0,48.0,21.0,5.0,-2.0,33.0,-13.0,0.0,0.0,0.0,0.0,0.0,0.0,0.0,0.0,3
-13.0,19.0,46.0,17.0,2.0,-4.0,26.0,-11.0,0.0,0.0,0.0,0.0,0.0,0.0,0.0,0.0,3
1.0,14.0,30.0,13.0,1.0,0.0,16.0,-9.0,0.0,0.0,0.0,0.0,0.0,0.0,0.0,0.0,3
14.0,28.0,27.0,6.0,-10.0,-1.0,10.0,-6.0,0.0,0.0,0.0,0.0,0.0,0.0,0.0,0.0,3
6.0,29.0,3.0,-29.0,-9.0,-9.0,6.0,-8.0,0.0,0.0,0.0,0.0,0.0,0.0,0.0,0.0,3
2.0,10.0,-29.0,-45.0,-10.0,-9.0,-5.0,-11.0,0.0,0.0,0.0,0.0,0.0,0.0,0.0,0.0,3
6.0,-16.0,-41.0,-44.0,-15.0,-13.0,-15.0,-10.0,0.0,0.0,0.0,0.0,0.0,0.0,0.0,0.0,3
3.0,-23.0,-30.0,-26.0,-8.0,-15.0,-11.0,-7.0,0.0,0.0,0.0,0.0,0.0,0.0,0.0,0.0,3
-2.0,-18.0,-16.0,-1.0,2.0,-6.0,-7.0,-4.0,0.0,0.0,0.0,0.0,0.0,0.0,0.0,0.0,3
4.0,-6.0,-1.0,13.0,4.0,-3.0,-15.0,0.0,0.0,0.0,0.0,0.0,0.0,0.0,0.0,0.0,3
12.0,-11.0,-1.0,21.0,-2.0,-2.0,-27.0,8.0,0.0,0.0,0.0,0.0,0.0,0.0,0.0,0.0,3
8.0,-22.0,-7.0,20.0,3.0,-1.0,-16.0,5.0,0.0,0.0,0.0,0.0,0.0,0.0,0.0,0.0,3
8.0,-18.0,-2.0,5.0,-2.0,3.0,-21.0,8.0,0.0,0.0,0.0,0.0,0.0,0.0,0.0,0.0,3
18.0,-17.0,-11.0,-5.0,-4.0,5.0,-24.0,14.0,0.0,0.0,0.0,0.0,0.0,0.0,0.0,0.0,3
9.0,-3.0,-28.0,-7.0,-1.0,1.0,-16.0,15.0,0.0,0.0,0.0,0.0,0.0,0.0,0.0,0.0,3
-6.0,-9.0,-36.0,-5.0,-2.0,3.0,-12.0,7.0,0.0,0.0,0.0,0.0,0.0,0.0,0.0,0.0,3
-20.0,-13.0,-15.0,9.0,5.0,8.0,-9.0,0.0,0.0,0.0,0.0,0.0,0.0,0.0,0.0,0.0,3
-17.0,6.0,29.0,24.0,13.0,3.0,1.0,-8.0,0.0,0.0,0.0,0.0,0.0,0.0,0.0,0.0,3
