CH1,CH2,CH3,CH4,CH5,CH6,CH7,CH8,CH9,CH10,CH11,CH12,CH13,CH14,CH15,CH16,label
1354.0,-2455.0,-178.0,-660.0,601.0,-9933.0,-11.0,-892.0,0.0,0.0,0.0,0.0,0.0,0.0,0.0,0.0,0
-436.0,781.0,46.0,203.0,-197.0,3172.0,-7.0,285.0,0.0,0.0,0.0,0.0,0.0,0.0,0.0,0.0,0
-889.0,1607.0,107.0,432.0,-399.0,6528.0,-3.0,589.0,0.0,0.0,0.0,0.0,0.0,0.0,0.0,0.0,0
-747.0,1355.0,90.0,373.0,-331.0,5528.0,0.0,500.0,0.0,0.0,0.0,0.0,0.0,0.0,0.0,0.0,0
-438.0,779.0,66.0,222.0,-191.0,3187.0,7.0,292.0,0.0,0.0,0.0,0.0,0.0,0.0,0.0,0.0,0
-70.0,123.0,34.0,37.0,-27.0,461.0,13.0,31.0,0.0,0.0,0.0,0.0,0.0,0.0,0.0,0.0,0
302.0,-525.0,-17.0,-151.0,132.0,-2230.0,11.0,-215.0,0.0,0.0,0.0,0.0,0.0,0.0,0.0,0.0,0
536.0,-960.0,-101.0,-294.0,221.0,-3918.0,-3.0,-366.0,0.0,0.0,0.0,0.0,0.0,0.0,0.0,0.0,0
514.0,-923.0,-115.0,-291.0,216.0,-3787.0,6.0,-347.0,0.0,0.0,0.0,0.0,0.0,0.0,0.0,0.0,0
298.0,-529.0,-49.0,-165.0,130.0,-2250.0,3.0,-194.0,0.0,0.0,0.0,0.0,0.0,0.0,0.0,0.0,0
63.0,-157.0,12.0,-33.0,42.0,-658.0,-1.0,-61.0,0.0,0.0,0.0,0.0,0.0,0.0,0.0,0.0,0
-47.0,-9.0,38.0,33.0,5.0,81.0,-14.0,2.0,0.0,0.0,0.0,0.0,0.0,0.0,0.0,0.0,0
-48.0,11.0,13.0,44.0,-15.0,301.0,-25.0,22.0,0.0,0.0,0.0,0.0,0.0,0.0,0.0,0.0,0
-81.0,121.0,4.0,62.0,-46.0,758.0,-22.0,72.0,0.0,0.0,0.0,0.0,0.0,0.0,0.0,0.0,0
-168.0,330.0,14.0,104.0,-86.0,1444.0,-10.0,143.0,0.0,0.0,0.0,0.0,0.0,0.0,0.0,0.0,0
-202.0,416.0,23.0,114.0,-94.0,1608.0,0.0,157.0,0.0,0.0,0.0,0.0,0.0,0.0,0.0,0.0,0
-150.0,249.0,-4.0,49.0,-49.0,886.0,-2.0,79.0,0.0,0.0,0.0,0.0,0.0,0.0,0.0,0.0,0
-22.0,0.0,-23.0,-18.0,2.0,-77.0,-13.0,-13.0,0.0,0.0,0.0,0.0,0.0,0.0,0.0,0.0,0
78.0,-72.0,-25.0,-44.0,16.0,-413.0,-7.0,-49.0,0.0,0.0,0.0,0.0,0.0,0.0,0.0,0.0,0
120.0,8.0,-6.0,-24.0,2.0,-96.0,1.0,-20.0,0.0,0.0,0.0,0.0,0.0,0.0,0.0,0.0,0
36.0,44.0,-2.0,-3.0,-14.0,118.0,5.0,10.0,0.0,0.0,0.0,0.0,0.0,0.0,0.0,0.0,0
-9.0,-58.0,-10.0,-20.0,2.0,-213.0,19.0,-9.0,0.0,0.0,0.0,0.0,0.0,0.0,0.0,0.0,0
9.0,-181.0,-12.0,-52.0,22.0,-646.0,17.0,-57.0,0.0,0.0,0.0,0.0,0.0,0.0,0.0,0.0,0
-17.0,-159.0,-1.0,-52.0,13.0,-537.0,3.0,-57.0,0.0,0.0,0.0,0.0,0.0,0.0,0.0,0.0,0
-68.0,-10.0,14.0,-9.0,-23.0,68.0,-3.0,-7.0,0.0,0.0,0.0,0.0,0.0,0.0,0.0,0.0,0
-37.0,103.0,31.0,31.0,-28.0,451.0,-6.0,30.0,0.0,0.0,0.0,0.0,0.0,0.0,0.0,0.0,0
11.0,60.0,18.0,28.0,2.0,219.0,-1.0,11.0,0.0,0.0,0.0,0.0,0.0,0.0,0.0,0.0,0
57.0,-33.0,-6.0,-6.0,33.0,-224.0,-1.0,-28.0,0.0,0.0,0.0,0.0,0.0,0.0,0.0,0.0,0
50.0,-42.0,-8.0,-1.0,33.0,-227.0,0.0,-34.0,0.0,0.0,0.0,0.0,0.0,0.0,0.0,0.0,0
-72.0,33.0,-8.0,23.0,3.0,186.0,-1.0,11.0,0.0,0.0,0.0,0.0,0.0,0.0,0.0,0.0,0
-125.0,77.0,-6.0,26.0,-17.0,411.0,-1.0,41.0,0.0,0.0,0.0,0.0,0.0,0.0,0.0,0.0,0
-12.0,19.0,-13.0,17.0,-8.0,127.0,-9.0,22.0,0.0,0.0,0.0,0.0,0.0,0.0,0.0,0.0,0
83.0,-61.0,-3.0,-8.0,12.0,-306.0,-5.0,-17.0,0.0,0.0,0.0,0.0,0.0,0.0,0.0,0.0,0
79.0,-66.0,5.0,-23.0,8.0,-324.0,-6.0,-24.0,0.0,0.0,0.0,0.0,0.0,0.0,0.0,0.0,0
36.0,17.0,1.0,-14.0,-26.0,66.0,-13.0,6.0,0.0,0.0,0.0,0.0,0.0,0.0,0.0,0.0,0
4.0,54.0,-22.0,-4.0,-44.0,303.0,-28.0,25.0,0.0,0.0,0.0,0.0,0.0,0.0,0.0,0.0,0
-1.0,5.0,-43.0,-16.0,-21.0,81.0,-19.0,3.0,0.0,0.0,0.0,0.0,0.0,0.0,0.0,0.0,0
51.0,-74.0,-30.0,-33.0,9.0,-273.0,-16.0,-22.0,0.0,0.0,0.0,0.0,0.0,0.0,0.0,0.0,0
45.0,-62.0,1.0,-15.0,18.0,-261.0,-8.0,-25.0,0.0,0.0,0.0,0.0,0.0,0.0,0.0,0.0,0
-80.0,42.0,37.0,23.0,8.0,107.0,10.0,6.0,0.0,0.0,0.0,0.0,0.0,0.0,0.0,0.0,0
-179.0,85.0,48.0,36.0,-7.0,320.0,16.0,26.0,0.0,0.0,0.0,0.0,0.0,0.0,0.0,0.0,0
-88.0,50.0,53.0,15.0,0.0,108.0,23.0,6.0,0.0,0.0,0.0,0.0,0.0,0.0,0.0,0.0,0
65.0,-1.0,81.0,12.0,26.0,-221.0,22.0,-17.0,0.0,0.0,0.0,0.0,0.0,0.0,0.0,0.0,0
79.0,-62.0,-6.0,-13.0,11.0,-236.0,12.0,-26.0,0.0,0.0,0.0,0.0,0.0,0.0,0.0,0.0,0
-4.0,-56.0,-109.0,-33.0,-19.0,75.0,-2.0,-7.0,0.0,0.0,0.0,0.0,0.0,0.0,0.0,0.0,0
-25.0,-13.0,-114.0,-25.0,-40.0,267.0,-4.0,9.0,0.0,0.0,0.0,0.0,0.0,0.0,0.0,0.0,0
9.0,-21.0,-73.0,-28.0,-20.0,79.0,-5.0,-6.0,0.0,0.0,0.0,0.0,0.0,0.0,0.0,0.0,0
33.0,-50.0,-17.0,-24.0,8.0,-222.0,-9.0,-26.0,0.0,0.0,0.0,0.0,0.0,0.0,0.0,0.0,0
19.0,-15.0,39.0,7.0,12.0,-223.0,1.0,-12.0,0.0,0.0,0.0,0.0,0.0,0.0,0.0,0.0,0
-26.0,68.0,75.0,29.0,-3.0,70.0,3.0,21.0,0.0,0.0,0.0,0.0,0.0,0.0,0.0,0.0,0
-30.0,104.0,77.0,41.0,-5.0,248.0,-2.0,26.0,0.0,0.0,0.0,0.0,0.0,0.0,0.0,0.0,0
22.0,63.0,56.0,40.0,19.0,92.0,-4.0,-2.0,0.0,0.0,0.0,0.0,0.0,0.0,0.0,0.0,0
56.0,-18.0,24.0,5.0,34.0,-169.0,1.0,-24.0,0.0,0.0,0.0,0.0,0.0,0.0,0.0,0.0,0
0.0,-73.0,-29.0,-43.0,-9.0,-208.0,-22.0,-21.0,0.0,0.0,0.0,0.0,0.0,0.0,0.0,0.0,0
-36.0,-32.0,-57.0,-42.0,-34.0,42.0,-41.0,4.0,0.0,0.0,0.0,0.0,0.0,0.0,0.0,0.0,0
-32.0,18.0,-46.0,-11.0,-26.0,222.0,-26.0,31.0,0.0,0.0,0.0,0.0,0.0,0.0,0.0,0.0,0
-8.0,-29.0,-51.0,-9.0,-16.0,75.0,-14.0,25.0,0.0,0.0,0.0,0.0,0.0,0.0,0.0,0.0,0
10.0,-101.0,-71.0,-38.0,-5.0,-188.0,-6.0,-13.0,0.0,0.0,0.0,0.0,0.0,0.0,0.0,0.0,0
13.0,-71.0,-14.0,-13.0,11.0,-179.0,1.0,-20.0,0.0,0.0,0.0,0.0,0.0,0.0,0.0,0.0,0
0.0,30.0,46.0,37.0,14.0,73.0,17.0,5.0,0.0,0.0,0.0,0.0,0.0,0.0,0.0,0.0,0
-19.0,80.0,54.0,42.0,5.0,216.0,15.0,13.0,0.0,0.0,0.0,0.0,0.0,0.0,0.0,0.0,0
-21.0,48.0,53.0,17.0,1.0,67.0,15.0,0.0,0.0,0.0,0.0,0.0,0.0,0.0,0.0,0.0,0
-3.0,-9.0,44.0,2.0,6.0,-156.0,15.0,-22.0,0.0,0.0,0.0,0.0,0.0,0.0,0.0,0.0,0
10.0,-23.0,11.0,-5.0,4.0,-155.0,12.0,-26.0,0.0,0.0,0.0,0.0,0.0,0.0,0.0,0.0,0
-6.0,19.0,-34.0,-17.0,-13.0,56.0,3.0,-7.0,0.0,0.0,0.0,0.0,0.0,0.0,0.0,0.0,0
-10.0,63.0,-44.0,-27.0,-24.0,182.0,-3.0,6.0,0.0,0.0,0.0,0.0,0.0,0.0,0.0,0.0,0
-1.0,43.0,-22.0,-25.0,-11.0,47.0,-6.0,-2.0,0.0,0.0,0.0,0.0,0.0,0.0,0.0,0.0,0
11.0,-39.0,-2.0,-14.0,5.0,-155.0,-8.0,-6.0,0.0,0.0,0.0,0.0,0.0,0.0,0.0,0.0,0
0.0,-68.0,12.0,0.0,5.0,-143.0,-3.0,-20.0,0.0,0.0,0.0,0.0,0.0,0.0,0.0,0.0,0
6.0,-7.0,28.0,7.0,0.0,61.0,8.0,-11.0,0.0,0.0,0.0,0.0,0.0,0.0,0.0,0.0,0
-12.0,10.0,-6.0,7.0,-11.0,163.0,0.0,18.0,0.0,0.0,0.0,0.0,0.0,0.0,0.0,0.0,0
-15.0,-40.0,-41.0,-5.0,-1.0,36.0,-18.0,13.0,0.0,0.0,0.0,0.0,0.0,0.0,0.0,0.0,0
-5.0,-86.0,-41.0,-16.0,2.0,-137.0,-17.0,-4.0,0.0,0.0,0.0,0.0,0.0,0.0,0.0,0.0,0
-10.0,-47.0,-18.0,-7.0,1.0,-120.0,-16.0,-8.0,0.0,0.0,0.0,0.0,0.0,0.0,0.0,0.0,0
11.0,56.0,4.0,13.0,-5.0,40.0,-17.0,2.0,0.0,0.0,0.0,0.0,0.0,0.0,0.0,0.0,0
33.0,99.0,22.0,24.0,-13.0,140.0,-17.0,15.0,0.0,0.0,0.0,0.0,0.0,0.0,0.0,0.0,0
26.0,39.0,12.0,13.0,1.0,44.0,-7.0,7.0,0.0,0.0,0.0,0.0,0.0,0.0,0.0,0.0,0
25.0,-32.0,0.0,-5.0,5.0,-115.0,-10.0,-10.0,0.0,0.0,0.0,0.0,0.0,0.0,0.0,0.0,0
1.0,-40.0,1.0,-7.0,11.0,-101.0,2.0,-14.0,0.0,0.0,0.0,0.0,0.0,0.0,0.0,0.0,0
-34.0,11.0,28.0,7.0,17.0,60.0,19.0,6.0,0.0,0.0,0.0,0.0,0.0,0.0,0.0,0.0,0
-83.0,1.0,-12.0,-8.0,-12.0,131.0,10.0,1.0,0.0,0.0,0.0,0.0,0.0,0.0,0.0,0.0,0
1.0,-14.0,-26.0,-19.0,-24.0,34.0,9.0,-3.0,0.0,0.0,0.0,0.0,0.0,0.0,0.0,0.0,0
45.0,-9.0,-8.0,-26.0,-6.0,-111.0,16.0,-11.0,0.0,0.0,0.0,0.0,0.0,0.0,0.0,0.0,0
8.0,-12.0,1.0,-18.0,3.0,-114.0,7.0,-13.0,0.0,0.0,0.0,0.0,0.0,0.0,0.0,0.0,0
-31.0,1.0,6.0,-2.0,-10.0,27.0,5.0,-1.0,0.0,0.0,0.0,0.0,0.0,0.0,0.0,0.0,0
-42.0,32.0,23.0,19.0,-8.0,117.0,2.0,12.0,0.0,0.0,0.0,0.0,0.0,0.0,0.0,0.0,0
-32.0,10.0,16.0,16.0,-6.0,38.0,-5.0,-13.0,0.0,0.0,0.0,0.0,0.0,0.0,0.0,0.0,0
7.0,-24.0,0.0,5.0,2.0,-93.0,-5.0,-20.0,0.0,0.0,0.0,0.0,0.0,0.0,0.0,0.0,0
26.0,-17.0,-12.0,5.0,9.0,-92.0,-5.0,-17.0,0.0,0.0,0.0,0.0,0.0,0.0,0.0,0.0,0
4.0,-7.0,-13.0,1.0,2.0,28.0,-4.0,-7.0,0.0,0.0,0.0,0.0,0.0,0.0,0.0,0.0,0
-10.0,-4.0,-5.0,8.0,-7.0,106.0,-5.0,11.0,0.0,0.0,0.0,0.0,0.0,0.0,0.0,0.0,0
19.0,-10.0,-15.0,-5.0,-3.0,33.0,-4.0,14.0,0.0,0.0,0.0,0.0,0.0,0.0,0.0,0.0,0
25.0,-24.0,-30.0,-29.0,7.0,-89.0,-8.0,-2.0,0.0,0.0,0.0,0.0,0.0,0.0,0.0,0.0,0
-1.0,-13.0,-29.0,-24.0,1.0,-94.0,-10.0,-6.0,0.0,0.0,0.0,0.0,0.0,0.0,0.0,0.0,0
-15.0,9.0,-24.0,-10.0,-11.0,27.0,-18.0,15.0,0.0,0.0,0.0,0.0,0.0,0.0,0.0,0.0,0
-3.0,15.0,-11.0,-1.0,-14.0,91.0,-20.0,18.0,0.0,0.0,0.0,0.0,0.0,0.0,0.0,0.0,0
9.0,10.0,5.0,-5.0,-10.0,27.0,-20.0,6.0,0.0,0.0,0.0,0.0,0.0,0.0,0.0,0.0,0
6.0,-18.0,13.0,-3.0,-3.0,-75.0,-14.0,-11.0,0.0,0.0,0.0,0.0,0.0,0.0,0.0,0.0,0
-11.0,-24.0,13.0,0.0,0.0,-72.0,-5.0,-15.0,0.0,0.0,0.0,0.0,0.0,0.0,0.0,0.0,0
9.0,10.0,21.0,16.0,-3.0,32.0,9.0,-9.0,0.0,0.0,0.0,0.0,0.0,0.0,0.0,0.0,0
33.0,27.0,23.0,25.0,-2.0,93.0,17.0,8.0,0.0,0.0,0.0,0.0,0.0,0.0,0.0,0.0,0
7.0,11.0,18.0,12.0,3.0,28.0,19.0,3.0,0.0,0.0,0.0,0.0,0.0,0.0,0.0,0.0,0
-40.0,-26.0,5.0,-10.0,8.0,-73.0,19.0,-7.0,0.0,0.0,0.0,0.0,0.0,0.0,0.0,0.0,0
-58.0,-38.0,-29.0,-21.0,4.0,-68.0,9.0,-11.0,0.0,0.0,0.0,0.0,0.0,0.0,0.0,0.0,0
-59.0,1.0,-34.0,-15.0,-4.0,23.0,8.0,-13.0,0.0,0.0,0.0,0.0,0.0,0.0,0.0,0.0,0
-39.0,24.0,-19.0,-12.0,-8.0,73.0,4.0,-5.0,0.0,0.0,0.0,0.0,0.0,0.0,0.0,0.0,0
4.0,20.0,-5.0,-2.0,-5.0,20.0,-4.0,-1.0,0.0,0.0,0.0,0.0,0.0,0.0,0.0,0.0,0
44.0,18.0,29.0,8.0,5.0,-65.0,-3.0,-6.0,0.0,0.0,0.0,0.0,0.0,0.0,0.0,0.0,0
62.0,26.0,38.0,17.0,8.0,-65.0,-3.0,-5.0,0.0,0.0,0.0,0.0,0.0,0.0,0.0,0.0,0
35.0,33.0,43.0,22.0,-3.0,17.0,-4.0,-5.0,0.0,0.0,0.0,0.0,0.0,0.0,0.0,0.0,0
8.0,8.0,19.0,10.0,-10.0,72.0,-8.0,0.0,0.0,0.0,0.0,0.0,0.0,0.0,0.0,0.0,0
-11.0,-53.0,-52.0,-34.0,-12.0,18.0,-19.0,-2.0,0.0,0.0,0.0,0.0,0.0,0.0,0.0,0.0,0
-24.0,-88.0,-74.0,-44.0,-5.0,-59.0,-11.0,-4.0,0.0,0.0,0.0,0.0,0.0,0.0,0.0,0.0,0
-24.0,-74.0,-57.0,-29.0,-8.0,-60.0,-9.0,-6.0,0.0,0.0,0.0,0.0,0.0,0.0,0.0,0.0,0
-18.0,-35.0,-37.0,-10.0,-3.0,12.0,-16.0,4.0,0.0,0.0,0.0,0.0,0.0,0.0,0.0,0.0,0
-48.0,-1.0,-7.0,5.0,-7.0,56.0,-25.0,19.0,0.0,0.0,0.0,0.0,0.0,0.0,0.0,0.0,0
-27.0,30.0,25.0,18.0,-1.0,16.0,-6.0,19.0,0.0,0.0,0.0,0.0,0.0,0.0,0.0,0.0,0
51.0,54.0,51.0,32.0,12.0,-43.0,0.0,9.0,0.0,0.0,0.0,0.0,0.0,0.0,0.0,0.0,0
86.0,49.0,47.0,27.0,16.0,-38.0,4.0,-2.0,0.0,0.0,0.0,0.0,0.0,0.0,0.0,0.0,0
59.0,44.0,13.0,10.0,-1.0,18.0,-2.0,-13.0,0.0,0.0,0.0,0.0,0.0,0.0,0.0,0.0,0
-3.0,30.0,6.0,2.0,-3.0,64.0,11.0,-13.0,0.0,0.0,0.0,0.0,0.0,0.0,0.0,0.0,0
-53.0,-2.0,-3.0,-9.0,0.0,20.0,10.0,-17.0,0.0,0.0,0.0,0.0,0.0,0.0,0.0,0.0,0
-60.0,-40.0,-5.0,-8.0,-4.0,-48.0,10.0,-19.0,0.0,0.0,0.0,0.0,0.0,0.0,0.0,0.0,0
-67.0,-45.0,-6.0,-13.0,-4.0,-52.0,6.0,-17.0,0.0,0.0,0.0,0.0,0.0,0.0,0.0,0.0,0
-86.0,-27.0,-9.0,-10.0,-6.0,13.0,9.0,-7.0,0.0,0.0,0.0,0.0,0.0,0.0,0.0,0.0,0
-38.0,-2.0,-17.0,-13.0,-9.0,49.0,13.0,17.0,0.0,0.0,0.0,0.0,0.0,0.0,0.0,0.0,0
37.0,8.0,-28.0,-35.0,-15.0,12.0,6.0,23.0,0.0,0.0,0.0,0.0,0.0,0.0,0.0,0.0,0
71.0,-1.0,-43.0,-42.0,-22.0,-50.0,-5.0,-4.0,0.0,0.0,0.0,0.0,0.0,0.0,0.0,0.0,0
80.0,12.0,-21.0,-14.0,-9.0,-45.0,1.0,-21.0,0.0,0.0,0.0,0.0,0.0,0.0,0.0,0.0,0
40.0,24.0,17.0,8.0,0.0,13.0,-1.0,-15.0,0.0,0.0,0.0,0.0,0.0,0.0,0.0,0.0,0
50.0,20.0,24.0,19.0,3.0,46.0,-12.0,8.0,0.0,0.0,0.0,0.0,0.0,0.0,0.0,0.0,0
17.0,-2.0,18.0,18.0,12.0,14.0,-27.0,6.0,0.0,0.0,0.0,0.0,0.0,0.0,0.0,0.0,0
-50.0,-22.0,30.0,32.0,22.0,-32.0,-20.0,-5.0,0.0,0.0,0.0,0.0,0.0,0.0,0.0,0.0,0
-74.0,-28.0,37.0,37.0,12.0,-34.0,-17.0,-5.0,0.0,0.0,0.0,0.0,0.0,0.0,0.0,0.0,0
-62.0,-29.0,-19.0,-5.0,-12.0,2.0,-24.0,2.0,0.0,0.0,0.0,0.0,0.0,0.0,0.0,0.0,0
-25.0,-16.0,-63.0,-26.0,-16.0,43.0,-15.0,5.0,0.0,0.0,0.0,0.0,0.0,0.0,0.0,0.0,0
12.0,17.0,-37.0,-20.0,0.0,23.0,2.0,-1.0,0.0,0.0,0.0,0.0,0.0,0.0,0.0,0.0,0
26.0,3.0,-18.0,-19.0,-8.0,-38.0,-9.0,-1.0,0.0,0.0,0.0,0.0,0.0,0.0,0.0,0.0,0
32.0,-22.0,-24.0,-8.0,-8.0,-44.0,-6.0,6.0,0.0,0.0,0.0,0.0,0.0,0.0,0.0,0.0,0
8.0,-11.0,-23.0,-4.0,-1.0,7.0,6.0,9.0,0.0,0.0,0.0,0.0,0.0,0.0,0.0,0.0,0
-9.0,18.0,2.0,1.0,-4.0,37.0,18.0,8.0,0.0,0.0,0.0,0.0,0.0,0.0,0.0,0.0,0
-15.0,34.0,28.0,6.0,-4.0,19.0,19.0,-4.0,0.0,0.0,0.0,0.0,0.0,0.0,0.0,0.0,0
-11.0,14.0,48.0,9.0,9.0,-24.0,16.0,-20.0,0.0,0.0,0.0,0.0,0.0,0.0,0.0,0.0,0
-4.0,-16.0,47.0,20.0,15.0,-26.0,14.0,-12.0,0.0,0.0,0.0,0.0,0.0,0.0,0.0,0.0,0
-10.0,-17.0,34.0,21.0,5.0,12.0,14.0,0.0,0.0,0.0,0.0,0.0,0.0,0.0,0.0,0.0,0
-6.0,7.0,19.0,13.0,-4.0,27.0,4.0,-1.0,0.0,0.0,0.0,0.0,0.0,0.0,0.0,0.0,0
14.0,25.0,7.0,1.0,-10.0,5.0,-5.0,-7.0,0.0,0.0,0.0,0.0,0.0,0.0,0.0,0.0,0
3.0,2.0,-8.0,-8.0,-5.0,-34.0,-10.0,-6.0,0.0,0.0,0.0,0.0,0.0,0.0,0.0,0.0,0
-22.0,-22.0,-48.0,-32.0,-14.0,-30.0,-9.0,-5.0,0.0,0.0,0.0,0.0,0.0,0.0,0.0,0.0,0
-24.0,-20.0,-72.0,-70.0,-23.0,1.0,-6.0,-5.0,0.0,0.0,0.0,0.0,0.0,0.0,0.0,0.0,0
-34.0,-3.0,-52.0,-59.0,-24.0,17.0,-13.0,-7.0,0.0,0.0,0.0,0.0,0.0,0.0,0.0,0.0,0
-17.0,-6.0,-25.0,-24.0,-12.0,-4.0,-18.0,0.0,0.0,0.0,0.0,0.0,0.0,0.0,0.0,0.0,0
62.0,-12.0,-2.0,9.0,6.0,-23.0,-12.0,-3.0,0.0,0.0,0.0,0.0,0.0,0.0,0.0,0.0,0
70.0,-7.0,21.0,39.0,13.0,-20.0,-3.0,5.0,0.0,0.0,0.0,0.0,0.0,0.0,0.0,0.0,0
-2.0,0.0,12.0,39.0,11.0,12.0,-17.0,4.0,0.0,0.0,0.0,0.0,0.0,0.0,0.0,0.0,0
-4.0,18.0,11.0,30.0,5.0,25.0,-17.0,9.0,0.0,0.0,0.0,0.0,0.0,0.0,0.0,0.0,0
12.0,9.0,12.0,23.0,5.0,10.0,-10.0,9.0,0.0,0.0,0.0,0.0,0.0,0.0,0.0,0.0,0
6.0,-21.0,-3.0,8.0,4.0,-20.0,-16.0,5.0,0.0,0.0,0.0,0.0,0.0,0.0,0.0,0.0,0
-20.0,-29.0,-3.0,-9.0,2.0,-15.0,-5.0,0.0,0.0,0.0,0.0,0.0,0.0,0.0,0.0,0.0,0
-37.0,-24.0,0.0,-9.0,-3.0,12.0,8.0,-5.0,0.0,0.0,0.0,0.0,0.0,0.0,0.0,0.0,0
-44.0,-4.0,10.0,-8.0,-4.0,26.0,13.0,-11.0,0.0,0.0,0.0,0.0,0.0,0.0,0.0,0.0,0
-50.0,10.0,18.0,-11.0,-1.0,2.0,16.0,-9.0,0.0,0.0,0.0,0.0,0.0,0.0,0.0,0.0,0
-28.0,11.0,6.0,-16.0,-2.0,-23.0,12.0,-8.0,0.0,0.0,0.0,0.0,0.0,0.0,0.0,0.0,0
31.0,29.0,16.0,3.0,0.0,-15.0,15.0,-6.0,0.0,0.0,0.0,0.0,0.0,0.0,0.0,0.0,0
62.0,45.0,25.0,21.0,9.0,15.0,19.0,11.0,0.0,0.0,0.0,0.0,0.0,0.0,0.0,0.0,0
27.0,10.0,2.0,10.0,-8.0,12.0,0.0,-1.0,0.0,0.0,0.0,0.0,0.0,0.0,0.0,0.0,0
-5.0,0.0,-13.0,-13.0,-17.0,-3.0,-7.0,-11.0,0.0,0.0,0.0,0.0,0.0,0.0,0.0,0.0,0
-6.0,-26.0,-24.0,-30.0,-22.0,-25.0,-15.0,-18.0,0.0,0.0,0.0,0.0,0.0,0.0,0.0,0.0,0
-10.0,-45.0,-27.0,-31.0,-8.0,-27.0,-15.0,-13.0,0.0,0.0,0.0,0.0,0.0,0.0,0.0,0.0,0
-17.0,-39.0,-26.0,-25.0,-3.0,4.0,-7.0,-4.0,0.0,0.0,0.0,0.0,0.0,0.0,0.0,0.0,0
-36.0,-23.0,-34.0,-27.0,-10.0,17.0,-9.0,-9.0,0.0,0.0,0.0,0.0,0.0,0.0,0.0,0.0,0
-34.0,4.0,-34.0,-24.0,-7.0,-3.0,-17.0,3.0,0.0,0.0,0.0,0.0,0.0,0.0,0.0,0.0,0
-23.0,3.0,-18.0,-7.0,-1.0,-27.0,-11.0,8.0,0.0,0.0,0.0,0.0,0.0,0.0,0.0,0.0,0
-13.0,-1.0,-12.0,8.0,3.0,-23.0,-9.0,4.0,0.0,0.0,0.0,0.0,0.0,0.0,0.0,0.0,0
42.0,10.0,3.0,22.0,3.0,2.0,-19.0,0.0,0.0,0.0,0.0,0.0,0.0,0.0,0.0,0.0,0
91.0,36.0,44.0,53.0,22.0,36.0,0.0,3.0,0.0,0.0,0.0,0.0,0.0,0.0,0.0,0.0,0
87.0,49.0,62.0,63.0,36.0,45.0,33.0,31.0,0.0,0.0,0.0,0.0,0.0,0.0,0.0,0.0,0
33.0,-29.0,13.0,6.0,2.0,-18.0,-11.0,12.0,0.0,0.0,0.0,0.0,0.0,0.0,0.0,0.0,0
-8.0,-46.0,-12.0,-17.0,-15.0,-39.0,-33.0,-9.0,0.0,0.0,0.0,0.0,0.0,0.0,0.0,0.0,0
-67.0,-22.0,-15.0,-17.0,-17.0,-16.0,-19.0,-12.0,0.0,0.0,0.0,0.0,0.0,0.0,0.0,0.0,0
-52.0,-4.0,-20.0,-23.0,-12.0,7.0,-4.0,-22.0,0.0,0.0,0.0,0.0,0.0,0.0,0.0,0.0,0
-5.0,9.0,-7.0,-3.0,3.0,17.0,22.0,-36.0,0.0,0.0,0.0,0.0,0.0,0.0,0.0,0.0,0
-54.0,-3.0,-16.0,-20.0,-2.0,-8.0,19.0,-16.0,0.0,0.0,0.0,0.0,0.0,0.0,0.0,0.0,0
-65.0,7.0,0.0,-13.0,-5.0,-10.0,15.0,10.0,0.0,0.0,0.0,0.0,0.0,0.0,0.0,0.0,0
-61.0,5.0,24.0,9.0,0.0,11.0,27.0,27.0,0.0,0.0,0.0,0.0,0.0,0.0,0.0,0.0,0
-38.0,2.0,23.0,6.0,1.0,18.0,17.0,21.0,0.0,0.0,0.0,0.0,0.0,0.0,0.0,0.0,0
10.0,-2.0,17.0,1.0,-8.0,0.0,0.0,-2.0,0.0,0.0,0.0,0.0,0.0,0.0,0.0,0.0,0
62.0,-3.0,9.0,-5.0,-7.0,-19.0,-10.0,-14.0,0.0,0.0,0.0,0.0,0.0,0.0,0.0,0.0,0
92.0,15.0,-2.0,-8.0,-7.0,-24.0,-13.0,-18.0,0.0,0.0,0.0,0.0,0.0,0.0,0.0,0.0,0
66.0,27.0,-14.0,-6.0,-8.0,-6.0,-7.0,-19.0,0.0,0.0,0.0,0.0,0.0,0.0,0.0,0.0,0
23.0,0.0,-22.0,-5.0,-9.0,2.0,-10.0,-10.0,0.0,0.0,0.0,0.0,0.0,0.0,0.0,0.0,0
-11.0,-22.0,-27.0,-17.0,0.0,-5.0,-19.0,-5.0,0.0,0.0,0.0,0.0,0.0,0.0,0.0,0.0,0
-35.0,-29.0,-19.0,-21.0,-5.0,-12.0,-17.0,0.0,0.0,0.0,0.0,0.0,0.0,0.0,0.0,0.0,0
-35.0,-22.0,2.0,-4.0,1.0,-4.0,-14.0,5.0,0.0,0.0,0.0,0.0,0.0,0.0,0.0,0.0,0
-10.0,-15.0,-2.0,7.0,1.0,4.0,-18.0,8.0,0.0,0.0,0.0,0.0,0.0,0.0,0.0,0.0,0
-5.0,-19.0,-32.0,2.0,-1.0,5.0,-14.0,13.0,0.0,0.0,0.0,0.0,0.0,0.0,0.0,0.0,0
-29.0,-22.0,-41.0,-4.0,-2.0,-1.0,-8.0,8.0,0.0,0.0,0.0,0.0,0.0,0.0,0.0,0.0,0
-17.0,-3.0,-13.0,7.0,-1.0,-5.0,-4.0,-2.0,0.0,0.0,0.0,0.0,0.0,0.0,0.0,0.0,0
9.0,19.0,17.0,11.0,1.0,0.0,-6.0,0.0,0.0,0.0,0.0,0.0,0.0,0.0,0.0,0.0,0
19.0,35.0,39.0,17.0,2.0,11.0,1.0,4.0,0.0,0.0,0.0,0.0,0.0,0.0,0.0,0.0,0
6.0,27.0,28.0,8.0,-2.0,14.0,9.0,-4.0,0.0,0.0,0.0,0.0,0.0,0.0,0.0,0.0,0
-20.0,0.0,12.0,-7.0,-9.0,-7.0,18.0,-14.0,0.0,0.0,0.0,0.0,0.0,0.0,0.0,0.0,0
-6.0,-9.0,2.0,-15.0,-4.0,-19.0,17.0,-16.0,0.0,0.0,0.0,0.0,0.0,0.0,0.0,0.0,0
34.0,-3.0,5.0,-8.0,7.0,2.0,21.0,-10.0,0.0,0.0,0.0,0.0,0.0,0.0,0.0,0.0,0
5.0,2.0,8.0,8.0,15.0,19.0,15.0,-3.0,0.0,0.0,0.0,0.0,0.0,0.0,0.0,0.0,0
-46.0,-35.0,-14.0,-12.0,-12.0,2.0,-9.0,-5.0,0.0,0.0,0.0,0.0,0.0,0.0,0.0,0.0,0
-35.0,-14.0,-7.0,-8.0,-18.0,-20.0,-13.0,-8.0,0.0,0.0,0.0,0.0,0.0,0.0,0.0,0.0,0
-11.0,8.0,7.0,-9.0,-11.0,-25.0,-7.0,-1.0,0.0,0.0,0.0,0.0,0.0,0.0,0.0,0.0,0
-6.0,13.0,14.0,-10.0,-8.0,-12.0,-4.0,7.0,0.0,0.0,0.0,0.0,0.0,0.0,0.0,0.0,0
6.0,25.0,11.0,1.0,0.0,6.0,-3.0,-2.0,0.0,0.0,0.0,0.0,0.0,0.0,0.0,0.0,0
9.0,5.0,-7.0,9.0,3.0,10.0,-8.0,-5.0,0.0,0.0,0.0,0.0,0.0,0.0,0.0,0.0,0
20.0,-25.0,-25.0,3.0,1.0,-4.0,-10.0,0.0,0.0,0.0,0.0,0.0,0.0,0.0,0.0,0.0,0
2.0,-33.0,-35.0,-7.0,-4.0,-18.0,-13.0,-1.0,0.0,0.0,0.0,0.0,0.0,0.0,0.0,0.0,0
15.0,-6.0,-8.0,2.0,6.0,-1.0,-6.0,0.0,0.0,0.0,0.0,0.0,0.0,0.0,0.0,0.0,0
21.0,7.0,9.0,7.0,10.0,15.0,-14.0,7.0,0.0,0.0,0.0,0.0,0.0,0.0,0.0,0.0,0
-28.0,-27.0,-7.0,10.0,-6.0,4.0,-27.0,-2.0,0.0,0.0,0.0,0.0,0.0,0.0,0.0,0.0,0
-47.0,-23.0,-10.0,13.0,-5.0,-7.0,-23.0,-4.0,0.0,0.0,0.0,0.0,0.0,0.0,0.0,0.0,0
-16.0,0.0,-47.0,-23.0,-1.0,-15.0,-15.0,1.0,0.0,0.0,0.0,0.0,0.0,0.0,0.0,0.0,0
33.0,34.0,-27.0,-35.0,-11.0,-4.0,5.0,4.0,0.0,0.0,0.0,0.0,0.0,0.0,0.0,0.0,0
43.0,37.0,16.0,-20.0,-9.0,-6.0,16.0,7.0,0.0,0.0,0.0,0.0,0.0,0.0,0.0,0.0,0
38.0,5.0,14.0,-14.0,-9.0,8.0,14.0,5.0,0.0,0.0,0.0,0.0,0.0,0.0,0.0,0.0,0
17.0,-18.0,-1.0,-14.0,-14.0,3.0,16.0,-10.0,0.0,0.0,0.0,0.0,0.0,0.0,0.0,0.0,0
-11.0,-10.0,14.0,12.0,1.0,1.0,24.0,-17.0,0.0,0.0,0.0,0.0,0.0,0.0,0.0,0.0,0
-30.0,-1.0,24.0,20.0,8.0,-6.0,13.0,-9.0,0.0,0.0,0.0,0.0,0.0,0.0,0.0,0.0,0
-65.0,-20.0,7.0,14.0,8.0,-7.0,4.0,-6.0,0.0,0.0,0.0,0.0,0.0,0.0,0.0,0.0,0
-61.0,-19.0,19.0,21.0,10.0,-2.0,-5.0,-5.0,0.0,0.0,0.0,0.0,0.0,0.0,0.0,0.0,0
-45.0,-8.0,34.0,22.0,7.0,0.0,-2.0,-9.0,0.0,0.0,0.0,0.0,0.0,0.0,0.0,0.0,0
-13.0,-1.0,8.0,-10.0,-4.0,-8.0,-8.0,-8.0,0.0,0.0,0.0,0.0,0.0,0.0,0.0,0.0,0
25.0,2.0,-17.0,-28.0,-16.0,-18.0,-13.0,-1.0,0.0,0.0,0.0,0.0,0.0,0.0,0.0,0.0,0
19.0,4.0,-20.0,-17.0,-16.0,-8.0,-12.0,-2.0,0.0,0.0,0.0,0.0,0.0,0.0,0.0,0.0,0
3.0,9.0,-15.0,-6.0,-1.0,9.0,0.0,-8.0,0.0,0.0,0.0,0.0,0.0,0.0,0.0,0.0,0
6.0,14.0,-17.0,4.0,4.0,9.0,-3.0,3.0,0.0,0.0,0.0,0.0,0.0,0.0,0.0,0.0,0
23.0,14.0,-7.0,10.0,4.0,-5.0,-7.0,13.0,0.0,0.0,0.0,0.0,0.0,0.0,0.0,0.0,0
37.0,6.0,-7.0,8.0,1.0,-13.0,-14.0,9.0,0.0,0.0,0.0,0.0,0.0,0.0,0.0,0.0,0
44.0,0.0,-15.0,-5.0,-3.0,-9.0,-21.0,7.0,0.0,0.0,0.0,0.0,0.0,0.0,0.0,0.0,0
42.0,-10.0,-17.0,-7.0,-2.0,-1.0,-20.0,2.0,0.0,0.0,0.0,0.0,0.0,0.0,0.0,0.0,0
-14.0,-24.0,-10.0,-5.0,-2.0,2.0,-11.0,-5.0,0.0,0.0,0.0,0.0,0.0,0.0,0.0,0.0,0
-65.0,-36.0,-13.0,-15.0,-2.0,-3.0,-10.0,0.0,0.0,0.0,0.0,0.0,0.0,0.0,0.0,0.0,0
-105.0,-37.0,-21.0,-13.0,-15.0,-9.0,-14.0,-19.0,0.0,0.0,0.0,0.0,0.0,0.0,0.0,0.0,0
-26.0,-2.0,-4.0,2.0,-5.0,5.0,2.0,-9.0,0.0,0.0,0.0,0.0,0.0,0.0,0.0,0.0,0
96.0,32.0,17.0,11.0,9.0,17.0,29.0,11.0,0.0,0.0,0.0,0.0,0.0,0.0,0.0,0.0,0
30.0,30.0,30.0,10.0,9.0,12.0,33.0,9.0,0.0,0.0,0.0,0.0,0.0,0.0,0.0,0.0,0
-54.0,5.0,22.0,-3.0,-1.0,-6.0,22.0,-6.0,0.0,0.0,0.0,0.0,0.0,0.0,0.0,0.0,0
-23.0,-6.0,15.0,-5.0,-7.0,-11.0,2.0,-10.0,0.0,0.0,0.0,0.0,0.0,0.0,0.0,0.0,0
11.0,11.0,20.0,-6.0,-16.0,-9.0,-5.0,-8.0,0.0,0.0,0.0,0.0,0.0,0.0,0.0,0.0,0
-3.0,6.0,-1.0,-14.0,-10.0,-6.0,-9.0,-7.0,0.0,0.0,0.0,0.0,0.0,0.0,0.0,0.0,0
-19.0,-15.0,-40.0,-19.0,-6.0,-7.0,-4.0,-14.0,0.0,0.0,0.0,0.0,0.0,0.0,0.0,0.0,0
-13.0,-22.0,-46.0,-22.0,-3.0,-15.0,-6.0,-11.0,0.0,0.0,0.0,0.0,0.0,0.0,0.0,0.0,0
16.0,-12.0,-17.0,1.0,6.0,-7.0,-2.0,-2.0,0.0,0.0,0.0,0.0,0.0,0.0,0.0,0.0,0
42.0,3.0,1.0,14.0,8.0,1.0,-3.0,-2.0,0.0,0.0,0.0,0.0,0.0,0.0,0.0,0.0,0
9.0,-2.0,6.0,16.0,-1.0,-2.0,-5.0,-1.0,0.0,0.0,0.0,0.0,0.0,0.0,0.0,0.0,0
-36.0,9.0,25.0,28.0,9.0,1.0,-11.0,12.0,0.0,0.0,0.0,0.0,0.0,0.0,0.0,0.0,0
-57.0,9.0,41.0,25.0,14.0,7.0,-4.0,8.0,0.0,0.0,0.0,0.0,0.0,0.0,0.0,0.0,0
-69.0,-13.0,15.0,2.0,5.0,0.0,-9.0,-2.0,0.0,0.0,0.0,0.0,0.0,0.0,0.0,0.0,0
24.0,-9.0,-13.0,-14.0,-6.0,-8.0,-19.0,-7.0,0.0,0.0,0.0,0.0,0.0,0.0,0.0,0.0,0
108.0,12.0,-13.0,-11.0,-12.0,-5.0,-19.0,4.0,0.0,0.0,0.0,0.0,0.0,0.0,0.0,0.0,0
85.0,9.0,-19.0,-12.0,-9.0,-1.0,-13.0,4.0,0.0,0.0,0.0,0.0,0.0,0.0,0.0,0.0,0
44.0,-10.0,-30.0,-19.0,-7.0,0.0,-18.0,8.0,0.0,0.0,0.0,0.0,0.0,0.0,0.0,0.0,0
-13.0,-38.0,-37.0,-23.0,-10.0,2.0,-5.0,-2.0,0.0,0.0,0.0,0.0,0.0,0.0,0.0,0.0,0
-90.0,-58.0,-21.0,-9.0,-7.0,-6.0,4.0,1.0,0.0,0.0,0.0,0.0,0.0,0.0,0.0,0.0,0
-105.0,-33.0,0.0,-3.0,-14.0,-4.0,10.0,-11.0,0.0,0.0,0.0,0.0,0.0,0.0,0.0,0.0,0
-41.0,31.0,4.0,-12.0,-20.0,1.0,22.0,-5.0,0.0,0.0,0.0,0.0,0.0,0.0,0.0,0.0,0
-11.0,46.0,-12.0,-27.0,-19.0,-8.0,20.0,-8.0,0.0,0.0,0.0,0.0,0.0,0.0,0.0,0.0,0
9.0,38.0,-18.0,-19.0,-8.0,-13.0,8.0,-13.0,0.0,0.0,0.0,0.0,0.0,0.0,0.0,0.0,0
22.0,9.0,-10.0,2.0,11.0,-7.0,2.0,-11.0,0.0,0.0,0.0,0.0,0.0,0.0,0.0,0.0,0
21.0,-7.0,14.0,27.0,28.0,4.0,8.0,-2.0,0.0,0.0,0.0,0.0,0.0,0.0,0.0,0.0,0
48.0,13.0,48.0,42.0,32.0,16.0,15.0,5.0,0.0,0.0,0.0,0.0,0.0,0.0,0.0,0.0,0
46.0,-8.0,42.0,18.0,10.0,0.0,-5.0,1.0,0.0,0.0,0.0,0.0,0.0,0.0,0.0,0.0,0
3.0,-19.0,32.0,10.0,3.0,-7.0,-12.0,-4.0,0.0,0.0,0.0,0.0,0.0,0.0,0.0,0.0,0
-36.0,-4.0,27.0,12.0,2.0,-4.0,-5.0,-6.0,0.0,0.0,0.0,0.0,0.0,0.0,0.0,0.0,0
-52.0,-1.0,-9.0,-9.0,-13.0,-7.0,-8.0,-6.0,0.0,0.0,0.0,0.0,0.0,0.0,0.0,0.0,0
-44.0,-9.0,-32.0,-23.0,-17.0,-9.0,-18.0,-9.0,0.0,0.0,0.0,0.0,0.0,0.0,0.0,0.0,0
-17.0,-12.0,-33.0,-11.0,-20.0,-5.0,-20.0,1.0,0.0,0.0,0.0,0.0,0.0,0.0,0.0,0.0,0
14.0,-8.0,-33.0,-13.0,-16.0,-6.0,-11.0,12.0,0.0,0.0,0.0,0.0,0.0,0.0,0.0,0.0,0
39.0,-12.0,-38.0,-15.0,-12.0,-9.0,-22.0,6.0,0.0,0.0,0.0,0.0,0.0,0.0,0.0,0.0,0
34.0,-17.0,-44.0,-12.0,-5.0,-8.0,-16.0,3.0,0.0,0.0,0.0,0.0,0.0,0.0,0.0,0.0,0
26.0,-4.0,-18.0,-11.0,4.0,-1.0,-7.0,3.0,0.0,0.0,0.0,0.0,0.0,0.0,0.0,0.0,0
15.0,17.0,4.0,-7.0,4.0,-1.0,-4.0,0.0,0.0,0.0,0.0,0.0,0.0,0.0,0.0,0.0,0
-27.0,17.0,24.0,9.0,3.0,0.0,-10.0,-4.0,0.0,0.0,0.0,0.0,0.0,0.0,0.0,0.0,0
-32.0,-3.0,19.0,5.0,0.0,2.0,1.0,-15.0,0.0,0.0,0.0,0.0,0.0,0.0,0.0,0.0,0
17.0,-1.0,23.0,9.0,3.0,7.0,11.0,2.0,0.0,0.0,0.0,0.0,0.0,0.0,0.0,0.0,0
-1.0,22.0,49.0,22.0,11.0,12.0,26.0,7.0,0.0,0.0,0.0,0.0,0.0,0.0,0.0,0.0,0
-52.0,20.0,38.0,14.0,3.0,8.0,25.0,-15.0,0.0,0.0,0.0,0.0,0.0,0.0,0.0,0.0,0
-59.0,-16.0,5.0,-3.0,-3.0,-6.0,6.0,-22.0,0.0,0.0,0.0,0.0,0.0,0.0,0.0,0.0,0
-15.0,-34.0,-28.0,-18.0,-6.0,-13.0,-5.0,-10.0,0.0,0.0,0.0,0.0,0.0,0.0,0.0,0.0,0
12.0,-36.0,-72.0,-42.0,-8.0,-11.0,0.0,5.0,0.0,0.0,0.0,0.0,0.0,0.0,0.0,0.0,0
23.0,-23.0,-61.0,-41.0,-12.0,-16.0,8.0,5.0,0.0,0.0,0.0,0.0,0.0,0.0,0.0,0.0,0
33.0,-2.0,-28.0,-18.0,-16.0,-12.0,-7.0,3.0,0.0,0.0,0.0,0.0,0.0,0.0,0.0,0.0,0
29.0,28.0,2.0,0.0,-8.0,-1.0,-1.0,1.0,0.0,0.0,0.0,0.0,0.0,0.0,0.0,0.0,0
6.0,25.0,37.0,22.0,-2.0,5.0,1.0,-10.0,0.0,0.0,0.0,0.0,0.0,0.0,0.0,0.0,0
-11.0,25.0,64.0,26.0,6.0,-3.0,-7.0,-11.0,0.0,0.0,0.0,0.0,0.0,0.0,0.0,0.0,0
-6.0,14.0,54.0,34.0,4.0,-5.0,-20.0,-13.0,0.0,0.0,0.0,0.0,0.0,0.0,0.0,0.0,0
-2.0,-6.0,21.0,26.0,3.0,-6.0,-21.0,-11.0,0.0,0.0,0.0,0.0,0.0,0.0,0.0,0.0,0
-7.0,-27.0,-8.0,11.0,3.0,-10.0,-14.0,-4.0,0.0,0.0,0.0,0.0,0.0,0.0,0.0,0.0,0
-2.0,-46.0,-50.0,-15.0,-7.0,-10.0,-21.0,7.0,0.0,0.0,0.0,0.0,0.0,0.0,0.0,0.0,0
-44.0,-54.0,-57.0,-17.0,-7.0,-2.0,-21.0,8.0,0.0,0.0,0.0,0.0,0.0,0.0,0.0,0.0,0
-32.0,-32.0,-37.0,-16.0,6.0,12.0,-9.0,14.0,0.0,0.0,0.0,0.0,0.0,0.0,0.0,0.0,0
10.0,-3.0,-26.0,-10.0,10.0,14.0,-5.0,13.0,0.0,0.0,0.0,0.0,0.0,0.0,0.0,0.0,0
23.0,22.0,-21.0,-18.0,-3.0,5.0,3.0,5.0,0.0,0.0,0.0,0.0,0.0,0.0,0.0,0.0,0
31.0,52.0,4.0,-4.0,2.0,12.0,27.0,7.0,0.0,0.0,0.0,0.0,0.0,0.0,0.0,0.0,0
31.0,54.0,20.0,-3.0,-3.0,-1.0,19.0,3.0,0.0,0.0,0.0,0.0,0.0,0.0,0.0,0.0,0
8.0,9.0,10.0,-22.0,-26.0,-19.0,-2.0,-17.0,0.0,0.0,0.0,0.0,0.0,0.0,0.0,0.0,0
-29.0,0.0,30.0,-5.0,-11.0,3.0,13.0,-32.0,0.0,0.0,0.0,0.0,0.0,0.0,0.0,0.0,0
-51.0,-13.0,29.0,8.0,-9.0,1.0,12.0,-21.0,0.0,0.0,0.0,0.0,0.0,0.0,0.0,0.0,0
-37.0,-36.0,5.0,7.0,-11.0,-20.0,-10.0,-1.0,0.0,0.0,0.0,0.0,0.0,0.0,0.0,0.0,0
-7.0,-26.0,1.0,6.0,2.0,-15.0,-8.0,-1.0,0.0,0.0,0.0,0.0,0.0,0.0,0.0,0.0,0
8.0,-23.0,-1.0,6.0,3.0,-4.0,-4.0,-4.0,0.0,0.0,0.0,0.0,0.0,0.0,0.0,0.0,0
38.0,-10.0,-6.0,-2.0,4.0,0.0,-4.0,1.0,0.0,0.0,0.0,0.0,0.0,0.0,0.0,0.0,0
26.0,5.0,-8.0,-6.0,8.0,-1.0,0.0,-2.0,0.0,0.0,0.0,0.0,0.0,0.0,0.0,0.0,0
-11.0,11.0,-2.0,-7.0,5.0,3.0,5.0,-4.0,0.0,0.0,0.0,0.0,0.0,0.0,0.0,0.0,0
-20.0,14.0,-8.0,-1.0,3.0,-6.0,-2.0,-10.0,0.0,0.0,0.0,0.0,0.0,0.0,0.0,0.0,0
13.0,21.0,-10.0,5.0,-7.0,-9.0,-19.0,-7.0,0.0,0.0,0.0,0.0,0.0,0.0,0.0,0.0,0
18.0,26.0,-1.0,4.0,-10.0,0.0,-13.0,-6.0,0.0,0.0,0.0,0.0,0.0,0.0,0.0,0.0,0
5.0,31.0,8.0,1.0,-4.0,5.0,-12.0,2.0,0.0,0.0,0.0,0.0,0.0,0.0,0.0,0.0,0
-3.0,0.0,5.0,7.0,-4.0,0.0,-18.0,10.0,0.0,0.0,0.0,0.0,0.0,0.0,0.0,0.0,0
-20.0,-36.0,-13.0,-6.0,-10.0,4.0,-21.0,16.0,0.0,0.0,0.0,0.0,0.0,0.0,0.0,0.0,0
-44.0,-60.0,-39.0,-29.0,-1.0,-5.0,-14.0,14.0,0.0,0.0,0.0,0.0,0.0,0.0,0.0,0.0,0
-35.0,-60.0,-42.0,-30.0,-7.0,-8.0,-8.0,4.0,0.0,0.0,0.0,0.0,0.0,0.0,0.0,0.0,0
-4.0,-39.0,-37.0,-6.0,-5.0,-2.0,3.0,-3.0,0.0,0.0,0.0,0.0,0.0,0.0,0.0,0.0,0
8.0,-9.0,9.0,19.0,3.0,4.0,9.0,-2.0,0.0,0.0,0.0,0.0,0.0,0.0,0.0,0.0,0
22.0,20.0,36.0,28.0,10.0,6.0,20.0,-8.0,0.0,0.0,0.0,0.0,0.0,0.0,0.0,0.0,0
24.0,31.0,28.0,13.0,5.0,1.0,18.0,-17.0,0.0,0.0,0.0,0.0,0.0,0.0,0.0,0.0,0
8.0,20.0,13.0,-4.0,-6.0,-10.0,16.0,-18.0,0.0,0.0,0.0,0.0,0.0,0.0,0.0,0.0,0
8.0,24.0,15.0,-1.0,-10.0,-9.0,3.0,-11.0,0.0,0.0,0.0,0.0,0.0,0.0,0.0,0.0,0
-8.0,28.0,22.0,2.0,-5.0,-4.0,-7.0,-9.0,0.0,0.0,0.0,0.0,0.0,0.0,0.0,0.0,0
-32.0,24.0,19.0,-2.0,2.0,1.0,-10.0,-1.0,0.0,0.0,0.0,0.0,0.0,0.0,0.0,0.0,0
-19.0,12.0,6.0,-7.0,6.0,0.0,1.0,6.0,0.0,0.0,0.0,0.0,0.0,0.0,0.0,0.0,0
10.0,-4.0,-21.0,-17.0,3.0,0.0,4.0,5.0,0.0,0.0,0.0,0.0,0.0,0.0,0.0,0.0,0
5.0,-26.0,-42.0,-26.0,-7.0,-1.0,1.0,-10.0,0.0,0.0,0.0,0.0,0.0,0.0,0.0,0.0,0
13.0,-18.0,-29.0,-17.0,-5.0,9.0,5.0,-4.0,0.0,0.0,0.0,0.0,0.0,0.0,0.0,0.0,0
18.0,-3.0,-17.0,-18.0,-18.0,-5.0,-5.0,5.0,0.0,0.0,0.0,0.0,0.0,0.0,0.0,0.0,0
-11.0,-22.0,-18.0,-15.0,-26.0,-21.0,-21.0,9.0,0.0,0.0,0.0,0.0,0.0,0.0,0.0,0.0,0
-42.0,-35.0,2.0,-1.0,-19.0,-22.0,-12.0,3.0,0.0,0.0,0.0,0.0,0.0,0.0,0.0,0.0,0
-41.0,-22.0,26.0,19.0,-1.0,3.0,-15.0,-30.0,0.0,0.0,0.0,0.0,0.0,0.0,0.0,0.0,0
15.0,6.0,25.0,26.0,13.0,16.0,-10.0,-35.0,0.0,0.0,0.0,0.0,0.0,0.0,0.0,0.0,0
74.0,10.0,-8.0,9.0,-5.0,-1.0,-21.0,23.0,0.0,0.0,0.0,0.0,0.0,0.0,0.0,0.0,0
36.0,-1.0,-40.0,5.0,-5.0,-5.0,-10.0,34.0,0.0,0.0,0.0,0.0,0.0,0.0,0.0,0.0,0
-9.0,-18.0,-44.0,0.0,9.0,-7.0,-7.0,18.0,0.0,0.0,0.0,0.0,0.0,0.0,0.0,0.0,0
-17.0,-15.0,-24.0,-2.0,14.0,2.0,-1.0,8.0,0.0,0.0,0.0,0.0,0.0,0.0,0.0,0.0,0
-40.0,7.0,7.0,-2.0,14.0,6.0,4.0,-10.0,0.0,0.0,0.0,0.0,0.0,0.0,0.0,0.0,0
-38.0,32.0,38.0,-1.0,4.0,1.0,4.0,-15.0,0.0,0.0,0.0,0.0,0.0,0.0,0.0,0.0,0
4.0,33.0,53.0,0.0,-3.0,3.0,20.0,-13.0,0.0,0.0,0.0,0.0,0.0,0.0,0.0,0.0,0
1.0,16.0,42.0,0.0,-3.0,2.0,21.0,-10.0,0.0,0.0,0.0,0.0,0.0,0.0,0.0,0.0,0
-13.0,0.0,18.0,-2.0,-5.0,0.0,10.0,-7.0,0.0,0.0,0.0,0.0,0.0,0.0,0.0,0.0,0
-19.0,-18.0,-7.0,-8.0,-12.0,-10.0,-3.0,-11.0,0.0,0.0,0.0,0.0,0.0,0.0,0.0,0.0,0
-10.0,-20.0,-27.0,-17.0,-13.0,-7.0,-4.0,-4.0,0.0,0.0,0.0,0.0,0.0,0.0,0.0,0.0,0
-1.0,-6.0,-39.0,-16.0,-12.0,-6.0,4.0,-5.0,0.0,0.0,0.0,0.0,0.0,0.0,0.0,0.0,0
33.0,-8.0,-28.0,-10.0,-6.0,-3.0,-1.0,-6.0,0.0,0.0,0.0,0.0,0.0,0.0,0.0,0.0,0
31.0,-15.0,-18.0,-1.0,-5.0,-7.0,5.0,2.0,0.0,0.0,0.0,0.0,0.0,0.0,0.0,0.0,0
-5.0,-12.0,-1.0,-2.0,-3.0,-8.0,0.0,1.0,0.0,0.0,0.0,0.0,0.0,0.0,0.0,0.0,0
-20.0,-3.0,9.0,1.0,0.0,-7.0,-5.0,3.0,0.0,0.0,0.0,0.0,0.0,0.0,0.0,0.0,0
-9.0,-4.0,9.0,10.0,8.0,-7.0,-13.0,-2.0,0.0,0.0,0.0,0.0,0.0,0.0,0.0,0.0,0
7.0,-3.0,10.0,12.0,9.0,4.0,-18.0,-6.0,0.0,0.0,0.0,0.0,0.0,0.0,0.0,0.0,0
-2.0,-18.0,-8.0,1.0,-3.0,4.0,-13.0,-1.0,0.0,0.0,0.0,0.0,0.0,0.0,0.0,0.0,0
4.0,-10.0,-19.0,3.0,-3.0,-4.0,-23.0,11.0,0.0,0.0,0.0,0.0,0.0,0.0,0.0,0.0,0
20.0,19.0,0.0,6.0,-3.0,-9.0,-19.0,4.0,0.0,0.0,0.0,0.0,0.0,0.0,0.0,0.0,0
23.0,26.0,21.0,10.0,2.0,-2.0,-14.0,-6.0,0.0,0.0,0.0,0.0,0.0,0.0,0.0,0.0,0
27.0,28.0,14.0,5.0,2.0,-1.0,-9.0,-2.0,0.0,0.0,0.0,0.0,0.0,0.0,0.0,0.0,0
-2.0,-4.0,-31.0,-22.0,-12.0,-7.0,-5.0,3.0,0.0,0.0,0.0,0.0,0.0,0.0,0.0,0.0,0
-52.0,-30.0,-63.0,-39.0,-17.0,4.0,6.0,-3.0,0.0,0.0,0.0,0.0,0.0,0.0,0.0,0.0,0
-64.0,-19.0,-39.0,-33.0,-9.0,2.0,10.0,-7.0,0.0,0.0,0.0,0.0,0.0,0.0,0.0,0.0,0
-16.0,-2.0,12.0,-10.0,4.0,4.0,21.0,-5.0,0.0,0.0,0.0,0.0,0.0,0.0,0.0,0.0,0
12.0,-8.0,37.0,10.0,10.0,5.0,27.0,-2.0,0.0,0.0,0.0,0.0,0.0,0.0,0.0,0.0,0
9.0,-10.0,48.0,22.0,0.0,4.0,20.0,-5.0,0.0,0.0,0.0,0.0,0.0,0.0,0.0,0.0,0
11.0,-9.0,32.0,15.0,3.0,3.0,15.0,-6.0,0.0,0.0,0.0,0.0,0.0,0.0,0.0,0.0,0
12.0,-9.0,-6.0,-3.0,2.0,-9.0,-3.0,-7.0,0.0,0.0,0.0,0.0,0.0,0.0,0.0,0.0,0
-34.0,-10.0,-8.0,-2.0,5.0,-11.0,-14.0,-18.0,0.0,0.0,0.0,0.0,0.0,0.0,0.0,0.0,0
-68.0,0.0,-1.0,4.0,-1.0,-11.0,-9.0,-10.0,0.0,0.0,0.0,0.0,0.0,0.0,0.0,0.0,0
-24.0,23.0,6.0,4.0,-5.0,-10.0,-5.0,0.0,0.0,0.0,0.0,0.0,0.0,0.0,0.0,0.0,0
4.0,40.0,11.0,1.0,-9.0,-7.0,-4.0,-1.0,0.0,0.0,0.0,0.0,0.0,0.0,0.0,0.0,0
48.0,30.0,3.0,-4.0,-10.0,-3.0,-7.0,1.0,0.0,0.0,0.0,0.0,0.0,0.0,0.0,0.0,0
76.0,-4.0,-3.0,3.0,-4.0,-5.0,-11.0,3.0,0.0,0.0,0.0,0.0,0.0,0.0,0.0,0.0,0
49.0,-14.0,-5.0,14.0,5.0,-1.0,-6.0,6.0,0.0,0.0,0.0,0.0,0.0,0.0,0.0,0.0,0
56.0,-9.0,-15.0,7.0,1.0,1.0,-6.0,0.0,0.0,0.0,0.0,0.0,0.0,0.0,0.0,0.0,0
35.0,-8.0,-40.0,-17.0,-8.0,-5.0,-22.0,-5.0,0.0,0.0,0.0,0.0,0.0,0.0,0.0,0.0,0
-17.0,-39.0,-50.0,-33.0,-6.0,-12.0,-28.0,-8.0,0.0,0.0,0.0,0.0,0.0,0.0,0.0,0.0,0
-86.0,-78.0,-37.0,-31.0,1.0,-3.0,-19.0,2.0,0.0,0.0,0.0,0.0,0.0,0.0,0.0,0.0,0
-102.0,-55.0,-23.0,-21.0,-7.0,-2.0,-12.0,-1.0,0.0,0.0,0.0,0.0,0.0,0.0,0.0,0.0,0
-29.0,19.0,-6.0,-10.0,-10.0,5.0,4.0,8.0,0.0,0.0,0.0,0.0,0.0,0.0,0.0,0.0,0
5.0,53.0,15.0,-2.0,-4.0,4.0,16.0,6.0,0.0,0.0,0.0,0.0,0.0,0.0,0.0,0.0,0
18.0,45.0,49.0,17.0,9.0,5.0,18.0,-2.0,0.0,0.0,0.0,0.0,0.0,0.0,0.0,0.0,0
14.0,26.0,45.0,29.0,14.0,2.0,19.0,-8.0,0.0,0.0,0.0,0.0,0.0,0.0,0.0,0.0,0
10.0,0.0,-1.0,3.0,-2.0,-2.0,15.0,-13.0,0.0,0.0,0.0,0.0,0.0,0.0,0.0,0.0,0
5.0,-4.0,-8.0,1.0,1.0,-8.0,7.0,-17.0,0.0,0.0,0.0,0.0,0.0,0.0,0.0,0.0,0
-7.0,4.0,9.0,7.0,-6.0,1.0,1.0,-11.0,0.0,0.0,0.0,0.0,0.0,0.0,0.0,0.0,0
12.0,5.0,17.0,5.0,-5.0,-3.0,0.0,-1.0,0.0,0.0,0.0,0.0,0.0,0.0,0.0,0.0,0
10.0,17.0,36.0,15.0,4.0,-1.0,8.0,9.0,0.0,0.0,0.0,0.0,0.0,0.0,0.0,0.0,0
6.0,7.0,36.0,19.0,7.0,6.0,11.0,17.0,0.0,0.0,0.0,0.0,0.0,0.0,0.0,0.0,0
-30.0,-28.0,-5.0,-20.0,-17.0,-17.0,-7.0,0.0,0.0,0.0,0.0,0.0,0.0,0.0,0.0,0.0,0
-59.0,-25.0,-23.0,-22.0,-14.0,-13.0,-13.0,-24.0,0.0,0.0,0.0,0.0,0.0,0.0,0.0,0.0,0
-34.0,-44.0,-67.0,-29.0,-11.0,-15.0,-22.0,-30.0,0.0,0.0,0.0,0.0,0.0,0.0,0.0,0.0,0
65.0,-16.0,-77.0,-28.0,-7.0,-14.0,-24.0,-8.0,0.0,0.0,0.0,0.0,0.0,0.0,0.0,0.0,0
82.0,19.0,-40.0,-12.0,-3.0,-10.0,-13.0,11.0,0.0,0.0,0.0,0.0,0.0,0.0,0.0,0.0,0
24.0,23.0,1.0,2.0,4.0,-2.0,-11.0,7.0,0.0,0.0,0.0,0.0,0.0,0.0,0.0,0.0,0
-66.0,-6.0,10.0,10.0,7.0,-1.0,-22.0,-2.0,0.0,0.0,0.0,0.0,0.0,0.0,0.0,0.0,0
-85.0,-22.0,11.0,11.0,7.0,7.0,-14.0,11.0,0.0,0.0,0.0,0.0,0.0,0.0,0.0,0.0,0
-40.0,-30.0,17.0,10.0,3.0,8.0,-3.0,11.0,0.0,0.0,0.0,0.0,0.0,0.0,0.0,0.0,0
62.0,-31.0,11.0,9.0,-9.0,9.0,7.0,13.0,0.0,0.0,0.0,0.0,0.0,0.0,0.0,0.0,0
102.0,-4.0,-1.0,-4.0,-3.0,6.0,8.0,11.0,0.0,0.0,0.0,0.0,0.0,0.0,0.0,0.0,0
19.0,14.0,-5.0,-3.0,-9.0,-1.0,19.0,-2.0,0.0,0.0,0.0,0.0,0.0,0.0,0.0,0.0,0
-26.0,29.0,10.0,-6.0,-10.0,-2.0,8.0,-9.0,0.0,0.0,0.0,0.0,0.0,0.0,0.0,0.0,0
-22.0,39.0,14.0,-6.0,-7.0,-1.0,10.0,-19.0,0.0,0.0,0.0,0.0,0.0,0.0,0.0,0.0,0
-30.0,16.0,3.0,-6.0,-12.0,-13.0,10.0,-19.0,0.0,0.0,0.0,0.0,0.0,0.0,0.0,0.0,0
-34.0,6.0,-8.0,-2.0,-8.0,-11.0,3.0,-7.0,0.0,0.0,0.0,0.0,0.0,0.0,0.0,0.0,0
-23.0,-5.0,-9.0,-12.0,3.0,-8.0,-4.0,-6.0,0.0,0.0,0.0,0.0,0.0,0.0,0.0,0.0,0
6.0,0.0,11.0,6.0,13.0,1.0,5.0,-20.0,0.0,0.0,0.0,0.0,0.0,0.0,0.0,0.0,0
0.0,-6.0,23.0,13.0,16.0,8.0,12.0,-9.0,0.0,0.0,0.0,0.0,0.0,0.0,0.0,0.0,0
-27.0,-29.0,-10.0,-15.0,-5.0,-4.0,-6.0,4.0,0.0,0.0,0.0,0.0,0.0,0.0,0.0,0.0,0
-18.0,-29.0,-24.0,-16.0,-13.0,-18.0,-15.0,6.0,0.0,0.0,0.0,0.0,0.0,0.0,0.0,0.0,0
13.0,-13.0,-5.0,0.0,-4.0,-11.0,-5.0,2.0,0.0,0.0,0.0,0.0,0.0,0.0,0.0,0.0,0
11.0,-6.0,-4.0,-2.0,-3.0,-3.0,-9.0,1.0,0.0,0.0,0.0,0.0,0.0,0.0,0.0,0.0,0
9.0,3.0,3.0,8.0,0.0,-3.0,-20.0,-1.0,0.0,0.0,0.0,0.0,0.0,0.0,0.0,0.0,0
14.0,9.0,11.0,15.0,1.0,-2.0,-14.0,-5.0,0.0,0.0,0.0,0.0,0.0,0.0,0.0,0.0,0
12.0,7.0,2.0,10.0,3.0,5.0,-1.0,4.0,0.0,0.0,0.0,0.0,0.0,0.0,0.0,0.0,0
17.0,11.0,-19.0,1.0,1.0,6.0,-5.0,10.0,0.0,0.0,0.0,0.0,0.0,0.0,0.0,0.0,0
7.0,1.0,-24.0,-9.0,-4.0,-4.0,-14.0,6.0,0.0,0.0,0.0,0.0,0.0,0.0,0.0,0.0,0
-20.0,-3.0,-15.0,-16.0,-17.0,-10.0,-18.0,-13.0,0.0,0.0,0.0,0.0,0.0,0.0,0.0,0.0,0
-12.0,-8.0,-20.0,-18.0,-8.0,-4.0,-21.0,-19.0,0.0,0.0,0.0,0.0,0.0,0.0,0.0,0.0,0
53.0,17.0,0.0,12.0,21.0,27.0,21.0,20.0,0.0,0.0,0.0,0.0,0.0,0.0,0.0,0.0,0
44.0,-5.0,3.0,7.0,5.0,14.0,22.0,32.0,0.0,0.0,0.0,0.0,0.0,0.0,0.0,0.0,0
-48.0,-44.0,11.0,-3.0,-11.0,-14.0,-2.0,-14.0,0.0,0.0,0.0,0.0,0.0,0.0,0.0,0.0,0
-73.0,-32.0,44.0,9.0,-8.0,-24.0,3.0,-24.0,0.0,0.0,0.0,0.0,0.0,0.0,0.0,0.0,0
-62.0,-16.0,27.0,6.0,-8.0,-14.0,7.0,-17.0,0.0,0.0,0.0,0.0,0.0,0.0,0.0,0.0,0
-31.0,-1.0,-10.0,-16.0,-10.0,-5.0,7.0,-10.0,0.0,0.0,0.0,0.0,0.0,0.0,0.0,0.0,0
-5.0,16.0,-24.0,-23.0,-7.0,-1.0,8.0,-1.0,0.0,0.0,0.0,0.0,0.0,0.0,0.0,0.0,0
7.0,27.0,-19.0,-21.0,0.0,6.0,7.0,-9.0,0.0,0.0,0.0,0.0,0.0,0.0,0.0,0.0,0
22.0,26.0,-13.0,-11.0,-6.0,1.0,5.0,-5.0,0.0,0.0,0.0,0.0,0.0,0.0,0.0,0.0,0
28.0,20.0,-7.0,5.0,0.0,-2.0,-1.0,-6.0,0.0,0.0,0.0,0.0,0.0,0.0,0.0,0.0,0
17.0,7.0,8.0,9.0,3.0,-3.0,-1.0,1.0,0.0,0.0,0.0,0.0,0.0,0.0,0.0,0.0,0
-1.0,-10.0,7.0,2.0,1.0,-5.0,-2.0,1.0,0.0,0.0,0.0,0.0,0.0,0.0,0.0,0.0,0
-28.0,-24.0,-1.0,-9.0,-8.0,-13.0,-12.0,-4.0,0.0,0.0,0.0,0.0,0.0,0.0,0.0,0.0,0
-26.0,-32.0,-21.0,-13.0,-17.0,-8.0,-24.0,-7.0,0.0,0.0,0.0,0.0,0.0,0.0,0.0,0.0,0
51.0,-13.0,-15.0,-2.0,-3.0,0.0,-12.0,-1.0,0.0,0.0,0.0,0.0,0.0,0.0,0.0,0.0,0
80.0,2.0,6.0,8.0,11.0,3.0,-6.0,8.0,0.0,0.0,0.0,0.0,0.0,0.0,0.0,0.0,0
44.0,5.0,9.0,6.0,4.0,-1.0,-14.0,8.0,0.0,0.0,0.0,0.0,0.0,0.0,0.0,0.0,0
-27.0,-11.0,-14.0,-5.0,1.0,-2.0,-18.0,5.0,0.0,0.0,0.0,0.0,0.0,0.0,0.0,0.0,0
-60.0,-15.0,-22.0,-6.0,2.0,4.0,-8.0,-1.0,0.0,0.0,0.0,0.0,0.0,0.0,0.0,0.0,0
-57.0,-10.0,-16.0,-2.0,-1.0,-5.0,-12.0,6.0,0.0,0.0,0.0,0.0,0.0,0.0,0.0,0.0,0
-40.0,-3.0,-13.0,1.0,5.0,-6.0,-4.0,-1.0,0.0,0.0,0.0,0.0,0.0,0.0,0.0,0.0,0
-7.0,11.0,9.0,3.0,3.0,-2.0,0.0,-2.0,0.0,0.0,0.0,0.0,0.0,0.0,0.0,0.0,0
20.0,22.0,30.0,5.0,1.0,1.0,10.0,-8.0,0.0,0.0,0.0,0.0,0.0,0.0,0.0,0.0,0
19.0,11.0,28.0,9.0,-5.0,8.0,24.0,-8.0,0.0,0.0,0.0,0.0,0.0,0.0,0.0,0.0,0
-12.0,-3.0,26.0,0.0,-6.0,8.0,23.0,-12.0,0.0,0.0,0.0,0.0,0.0,0.0,0.0,0.0,0
-26.0,-10.0,1.0,-5.0,-1.0,0.0,10.0,-12.0,0.0,0.0,0.0,0.0,0.0,0.0,0.0,0.0,0
3.0,-12.0,-9.0,-2.0,-9.0,-5.0,-1.0,-9.0,0.0,0.0,0.0,0.0,0.0,0.0,0.0,0.0,0
18.0,-11.0,-10.0,-9.0,-9.0,-10.0,2.0,0.0,0.0,0.0,0.0,0.0,0.0,0.0,0.0,0.0,0
1.0,3.0,-15.0,-22.0,-14.0,-11.0,-4.0,-2.0,0.0,0.0,0.0,0.0,0.0,0.0,0.0,0.0,0
-7.0,8.0,-9.0,-11.0,-10.0,-4.0,-12.0,1.0,0.0,0.0,0.0,0.0,0.0,0.0,0.0,0.0,0
-5.0,4.0,0.0,1.0,2.0,-4.0,-6.0,-1.0,0.0,0.0,0.0,0.0,0.0,0.0,0.0,0.0,0
-3.0,-3.0,6.0,5.0,4.0,-5.0,0.0,-7.0,0.0,0.0,0.0,0.0,0.0,0.0,0.0,0.0,0
7.0,-6.0,-10.0,-13.0,-9.0,-7.0,-3.0,-3.0,0.0,0.0,0.0,0.0,0.0,0.0,0.0,0.0,0
7.0,-3.0,-21.0,-16.0,-14.0,-10.0,-13.0,-2.0,0.0,0.0,0.0,0.0,0.0,0.0,0.0,0.0,0
-1.0,-3.0,-15.0,-9.0,-6.0,-6.0,-15.0,-8.0,0.0,0.0,0.0,0.0,0.0,0.0,0.0,0.0,0
-4.0,-4.0,-5.0,-7.0,-1.0,-6.0,-19.0,-7.0,0.0,0.0,0.0,0.0,0.0,0.0,0.0,0.0,0
2.0,-7.0,-13.0,5.0,2.0,1.0,-30.0,-5.0,0.0,0.0,0.0,0.0,0.0,0.0,0.0,0.0,0
20.0,3.0,7.0,22.0,18.0,12.0,-12.0,5.0,0.0,0.0,0.0,0.0,0.0,0.0,0.0,0.0,0
3.0,-10.0,8.0,16.0,14.0,11.0,-3.0,21.0,0.0,0.0,0.0,0.0,0.0,0.0,0.0,0.0,0
-9.0,-28.0,-17.0,-12.0,-6.0,1.0,-9.0,19.0,0.0,0.0,0.0,0.0,0.0,0.0,0.0,0.0,0
-14.0,-24.0,-17.0,-10.0,-12.0,-4.0,-5.0,4.0,0.0,0.0,0.0,0.0,0.0,0.0,0.0,0.0,0
-6.0,-8.0,-5.0,-1.0,-11.0,4.0,4.0,-9.0,0.0,0.0,0.0,0.0,0.0,0.0,0.0,0.0,0
1.0,2.0,-2.0,0.0,-8.0,2.0,13.0,-18.0,0.0,0.0,0.0,0.0,0.0,0.0,0.0,0.0,0
-2.0,16.0,8.0,3.0,-5.0,2.0,21.0,-9.0,0.0,0.0,0.0,0.0,0.0,0.0,0.0,0.0,0
-2.0,29.0,17.0,-2.0,-1.0,0.0,18.0,-6.0,0.0,0.0,0.0,0.0,0.0,0.0,0.0,0.0,0
-8.0,30.0,24.0,-6.0,-4.0,-9.0,8.0,-2.0,0.0,0.0,0.0,0.0,0.0,0.0,0.0,0.0,0
-35.0,13.0,14.0,-15.0,-7.0,-15.0,3.0,-8.0,0.0,0.0,0.0,0.0,0.0,0.0,0.0,0.0,0
-29.0,0.0,9.0,-7.0,-4.0,-6.0,2.0,1.0,0.0,0.0,0.0,0.0,0.0,0.0,0.0,0.0,0
9.0,6.0,17.0,15.0,12.0,16.0,13.0,-7.0,0.0,0.0,0.0,0.0,0.0,0.0,0.0,0.0,0
1.0,-8.0,6.0,6.0,4.0,4.0,-5.0,-32.0,0.0,0.0,0.0,0.0,0.0,0.0,0.0,0.0,0
-7.0,-33.0,-27.0,-14.0,-11.0,-19.0,-17.0,-6.0,0.0,0.0,0.0,0.0,0.0,0.0,0.0,0.0,0
10.0,-38.0,-30.0,-19.0,-18.0,-21.0,-15.0,1.0,0.0,0.0,0.0,0.0,0.0,0.0,0.0,0.0,0
-5.0,-29.0,-25.0,-8.0,-11.0,-14.0,-13.0,-7.0,0.0,0.0,0.0,0.0,0.0,0.0,0.0,0.0,0
13.0,-8.0,-19.0,-4.0,-3.0,-10.0,-25.0,2.0,0.0,0.0,0.0,0.0,0.0,0.0,0.0,0.0,0
30.0,9.0,-8.0,6.0,0.0,5.0,-5.0,11.0,0.0,0.0,0.0,0.0,0.0,0.0,0.0,0.0,0
8.0,12.0,2.0,12.0,11.0,13.0,9.0,16.0,0.0,0.0,0.0,0.0,0.0,0.0,0.0,0.0,0
-1.0,19.0,18.0,16.0,11.0,6.0,-9.0,15.0,0.0,0.0,0.0,0.0,0.0,0.0,0.0,0.0,0
5.0,24.0,32.0,24.0,8.0,3.0,-14.0,7.0,0.0,0.0,0.0,0.0,0.0,0.0,0.0,0.0,0
-15.0,-11.0,-7.0,-1.0,-2.0,2.0,-16.0,2.0,0.0,0.0,0.0,0.0,0.0,0.0,0.0,0.0,0
-15.0,-21.0,-47.0,-30.0,-12.0,-7.0,-15.0,-3.0,0.0,0.0,0.0,0.0,0.0,0.0,0.0,0.0,0
-7.0,-9.0,-36.0,-30.0,-7.0,-4.0,-13.0,-12.0,0.0,0.0,0.0,0.0,0.0,0.0,0.0,0.0,0
-14.0,-2.0,-4.0,-19.0,-3.0,-6.0,-4.0,-14.0,0.0,0.0,0.0,0.0,0.0,0.0,0.0,0.0,0
8.0,9.0,10.0,-7.0,-3.0,-1.0,20.0,-11.0,0.0,0.0,0.0,0.0,0.0,0.0,0.0,0.0,0
12.0,5.0,5.0,-3.0,-5.0,3.0,27.0,9.0,0.0,0.0,0.0,0.0,0.0,0.0,0.0,0.0,0
-9.0,-12.0,1.0,-6.0,-9.0,-11.0,10.0,-13.0,0.0,0.0,0.0,0.0,0.0,0.0,0.0,0.0,0
-6.0,19.0,44.0,28.0,10.0,5.0,15.0,-21.0,0.0,0.0,0.0,0.0,0.0,0.0,0.0,0.0,0
-31.0,1.0,42.0,27.0,0.0,2.0,9.0,-12.0,0.0,0.0,0.0,0.0,0.0,0.0,0.0,0.0,0
-55.0,-41.0,5.0,1.0,-12.0,-16.0,-11.0,6.0,0.0,0.0,0.0,0.0,0.0,0.0,0.0,0.0,0
-49.0,-48.0,-26.0,-14.0,-12.0,-13.0,-4.0,2.0,0.0,0.0,0.0,0.0,0.0,0.0,0.0,0.0,0
24.0,-10.0,-19.0,-10.0,-6.0,-7.0,-3.0,5.0,0.0,0.0,0.0,0.0,0.0,0.0,0.0,0.0,0
77.0,29.0,-8.0,-6.0,5.0,3.0,3.0,6.0,0.0,0.0,0.0,0.0,0.0,0.0,0.0,0.0,0
40.0,33.0,2.0,1.0,6.0,7.0,2.0,-10.0,0.0,0.0,0.0,0.0,0.0,0.0,0.0,0.0,0
16.0,46.0,2.0,-17.0,-14.0,-9.0,-7.0,-14.0,0.0,0.0,0.0,0.0,0.0,0.0,0.0,0.0,0
49.0,44.0,-11.0,-33.0,-18.0,-15.0,-16.0,0.0,0.0,0.0,0.0,0.0,0.0,0.0,0.0,0.0,0
42.0,6.0,-20.0,-19.0,-6.0,-6.0,-9.0,13.0,0.0,0.0,0.0,0.0,0.0,0.0,0.0,0.0,0
-27.0,-23.0,-11.0,4.0,13.0,0.0,-14.0,10.0,0.0,0.0,0.0,0.0,0.0,0.0,0.0,0.0,0
-90.0,-56.0,-24.0,5.0,15.0,0.0,-23.0,-4.0,0.0,0.0,0.0,0.0,0.0,0.0,0.0,0.0,0
-86.0,-75.0,-36.0,-2.0,0.0,-4.0,-25.0,-16.0,0.0,0.0,0.0,0.0,0.0,0.0,0.0,0.0,0
8.0,-44.0,-13.0,3.0,-10.0,1.0,-14.0,-6.0,0.0,0.0,0.0,0.0,0.0,0.0,0.0,0.0,0
9.0,7.0,25.0,23.0,10.0,6.0,-5.0,8.0,0.0,0.0,0.0,0.0,0.0,0.0,0.0,0.0,0
-8.0,13.0,33.0,34.0,11.0,12.0,6.0,17.0,0.0,0.0,0.0,0.0,0.0,0.0,0.0,0.0,0
7.0,6.0,14.0,20.0,4.0,6.0,16.0,10.0,0.0,0.0,0.0,0.0,0.0,0.0,0.0,0.0,0
31.0,1.0,-16.0,-18.0,1.0,7.0,15.0,9.0,0.0,0.0,0.0,0.0,0.0,0.0,0.0,0.0,0
17.0,14.0,-11.0,-21.0,-10.0,4.0,16.0,-5.0,0.0,0.0,0.0,0.0,0.0,0.0,0.0,0.0,0
16.0,38.0,13.0,-10.0,-10.0,1.0,17.0,-26.0,0.0,0.0,0.0,0.0,0.0,0.0,0.0,0.0,0
11.0,24.0,16.0,-3.0,-4.0,-8.0,13.0,-26.0,0.0,0.0,0.0,0.0,0.0,0.0,0.0,0.0,0
-15.0,0.0,1.0,-10.0,-10.0,-12.0,0.0,-9.0,0.0,0.0,0.0,0.0,0.0,0.0,0.0,0.0,0
-20.0,-2.0,-6.0,-4.0,-9.0,-11.0,-3.0,0.0,0.0,0.0,0.0,0.0,0.0,0.0,0.0,0.0,0
-26.0,-2.0,11.0,-4.0,-1.0,-8.0,-4.0,-5.0,0.0,0.0,0.0,0.0,0.0,0.0,0.0,0.0,0
-36.0,-6.0,7.0,-3.0,-6.0,-9.0,-10.0,-9.0,0.0,0.0,0.0,0.0,0.0,0.0,0.0,0.0,0
-27.0,-16.0,-16.0,-10.0,-4.0,-5.0,-11.0,0.0,0.0,0.0,0.0,0.0,0.0,0.0,0.0,0.0,0
-13.0,-11.0,-23.0,-16.0,-6.0,-4.0,2.0,3.0,0.0,0.0,0.0,0.0,0.0,0.0,0.0,0.0,0
-3.0,-6.0,-13.0,-14.0,-9.0,-5.0,2.0,0.0,0.0,0.0,0.0,0.0,0.0,0.0,0.0,0.0,0
13.0,-13.0,-8.0,-13.0,-9.0,-5.0,-10.0,1.0,0.0,0.0,0.0,0.0,0.0,0.0,0.0,0.0,0
41.0,-13.0,-9.0,-1.0,-9.0,0.0,-16.0,-3.0,0.0,0.0,0.0,0.0,0.0,0.0,0.0,0.0,0
51.0,-3.0,-3.0,9.0,-8.0,-1.0,-15.0,-1.0,0.0,0.0,0.0,0.0,0.0,0.0,0.0,0.0,0
37.0,-8.0,-8.0,18.0,3.0,-11.0,-22.0,1.0,0.0,0.0,0.0,0.0,0.0,0.0,0.0,0.0,0
-6.0,-10.0,-12.0,17.0,0.0,1.0,-25.0,4.0,0.0,0.0,0.0,0.0,0.0,0.0,0.0,0.0,0
-34.0,-7.0,3.0,19.0,9.0,9.0,-3.0,9.0,0.0,0.0,0.0,0.0,0.0,0.0,0.0,0.0,0
-43.0,-5.0,-1.0,11.0,10.0,10.0,1.0,14.0,0.0,0.0,0.0,0.0,0.0,0.0,0.0,0.0,0
-18.0,0.0,-11.0,-2.0,14.0,3.0,0.0,5.0,0.0,0.0,0.0,0.0,0.0,0.0,0.0,0.0,0
22.0,11.0,-11.0,-12.0,6.0,-3.0,8.0,-8.0,0.0,0.0,0.0,0.0,0.0,0.0,0.0,0.0,0
19.0,13.0,5.0,-20.0,-7.0,3.0,7.0,-16.0,0.0,0.0,0.0,0.0,0.0,0.0,0.0,0.0,0
-16.0,14.0,18.0,-14.0,-14.0,3.0,14.0,-12.0,0.0,0.0,0.0,0.0,0.0,0.0,0.0,0.0,0
-66.0,-11.0,14.0,-11.0,-14.0,-1.0,10.0,-13.0,0.0,0.0,0.0,0.0,0.0,0.0,0.0,0.0,0
-23.0,-20.0,-13.0,-20.0,-16.0,-16.0,5.0,-14.0,0.0,0.0,0.0,0.0,0.0,0.0,0.0,0.0,0
47.0,15.0,-8.0,-8.0,-9.0,-18.0,8.0,-9.0,0.0,0.0,0.0,0.0,0.0,0.0,0.0,0.0,0
3.0,22.0,17.0,11.0,-1.0,0.0,6.0,3.0,0.0,0.0,0.0,0.0,0.0,0.0,0.0,0.0,0
-17.0,-2.0,17.0,-11.0,-7.0,1.0,0.0,7.0,0.0,0.0,0.0,0.0,0.0,0.0,0.0,0.0,0
-15.0,-28.0,-7.0,-16.0,-19.0,-5.0,-10.0,4.0,0.0,0.0,0.0,0.0,0.0,0.0,0.0,0.0,0
-14.0,-29.0,-17.0,-1.0,2.0,-4.0,-6.0,-5.0,0.0,0.0,0.0,0.0,0.0,0.0,0.0,0.0,0
0.0,-7.0,13.0,24.0,16.0,2.0,2.0,-5.0,0.0,0.0,0.0,0.0,0.0,0.0,0.0,0.0,0
19.0,16.0,29.0,26.0,6.0,3.0,-1.0,-5.0,0.0,0.0,0.0,0.0,0.0,0.0,0.0,0.0,0
29.0,18.0,-15.0,-3.0,1.0,-2.0,-15.0,-4.0,0.0,0.0,0.0,0.0,0.0,0.0,0.0,0.0,0
6.0,8.0,-42.0,-19.0,-2.0,-4.0,-16.0,0.0,0.0,0.0,0.0,0.0,0.0,0.0,0.0,0.0,0
-33.0,-16.0,-29.0,-15.0,-6.0,-8.0,-10.0,1.0,0.0,0.0,0.0,0.0,0.0,0.0,0.0,0.0,0
-21.0,-27.0,-19.0,-5.0,-2.0,-8.0,-15.0,7.0,0.0,0.0,0.0,0.0,0.0,0.0,0.0,0.0,0
20.0,-11.0,-12.0,2.0,3.0,-6.0,-16.0,9.0,0.0,0.0,0.0,0.0,0.0,0.0,0.0,0.0,0
33.0,-5.0,0.0,6.0,-3.0,-3.0,-13.0,2.0,0.0,0.0,0.0,0.0,0.0,0.0,0.0,0.0,0
27.0,-1.0,-4.0,2.0,-6.0,-2.0,-11.0,-2.0,0.0,0.0,0.0,0.0,0.0,0.0,0.0,0.0,0
0.0,-29.0,-2.0,-15.0,-6.0,0.0,-7.0,-2.0,0.0,0.0,0.0,0.0,0.0,0.0,0.0,0.0,0
-18.0,-27.0,0.0,-14.0,-1.0,-1.0,7.0,-2.0,0.0,0.0,0.0,0.0,0.0,0.0,0.0,0.0,0
-10.0,12.0,8.0,-5.0,5.0,3.0,17.0,-4.0,0.0,0.0,0.0,0.0,0.0,0.0,0.0,0.0,0
-32.0,25.0,21.0,4.0,3.0,10.0,21.0,-9.0,0.0,0.0,0.0,0.0,0.0,0.0,0.0,0.0,0
-41.0,29.0,22.0,3.0,-2.0,6.0,20.0,-9.0,0.0,0.0,0.0,0.0,0.0,0.0,0.0,0.0,0
-25.0,22.0,11.0,0.0,-7.0,2.0,12.0,-6.0,0.0,0.0,0.0,0.0,0.0,0.0,0.0,0.0,0
6.0,17.0,8.0,-6.0,-8.0,-7.0,3.0,-3.0,0.0,0.0,0.0,0.0,0.0,0.0,0.0,0.0,0
17.0,3.0,2.0,-2.0,-2.0,-11.0,0.0,-3.0,0.0,0.0,0.0,0.0,0.0,0.0,0.0,0.0,0
-9.0,-21.0,-19.0,-8.0,-10.0,-13.0,-8.0,-10.0,0.0,0.0,0.0,0.0,0.0,0.0,0.0,0.0,0
-4.0,-13.0,-4.0,14.0,6.0,-1.0,0.0,-3.0,0.0,0.0,0.0,0.0,0.0,0.0,0.0,0.0,0
0.0,-5.0,2.0,15.0,8.0,2.0,-1.0,-1.0,0.0,0.0,0.0,0.0,0.0,0.0,0.0,0.0,0
9.0,-14.0,-12.0,-13.0,-13.0,-15.0,-7.0,-11.0,0.0,0.0,0.0,0.0,0.0,0.0,0.0,0.0,0
39.0,-16.0,-8.0,-11.0,-13.0,-14.0,-13.0,-12.0,0.0,0.0,0.0,0.0,0.0,0.0,0.0,0.0,0
47.0,-9.0,-2.0,-6.0,-8.0,-1.0,-16.0,-2.0,0.0,0.0,0.0,0.0,0.0,0.0,0.0,0.0,0
23.0,-3.0,9.0,3.0,-1.0,1.0,-11.0,-3.0,0.0,0.0,0.0,0.0,0.0,0.0,0.0,0.0,0
9.0,-2.0,11.0,2.0,5.0,3.0,-12.0,0.0,0.0,0.0,0.0,0.0,0.0,0.0,0.0,0.0,0
-21.0,5.0,-3.0,1.0,9.0,6.0,-8.0,17.0,0.0,0.0,0.0,0.0,0.0,0.0,0.0,0.0,0
-72.0,-6.0,-38.0,-17.0,4.0,1.0,-10.0,18.0,0.0,0.0,0.0,0.0,0.0,0.0,0.0,0.0,0
-75.0,-14.0,-51.0,-36.0,-17.0,-10.0,-10.0,5.0,0.0,0.0,0.0,0.0,0.0,0.0,0.0,0.0,0
-23.0,-15.0,-48.0,-36.0,-29.0,-11.0,-22.0,-1.0,0.0,0.0,0.0,0.0,0.0,0.0,0.0,0.0,0
8.0,-13.0,-30.0,-25.0,-22.0,-5.0,-14.0,0.0,0.0,0.0,0.0,0.0,0.0,0.0,0.0,0.0,0
20.0,-6.0,-10.0,-7.0,-3.0,-9.0,0.0,-4.0,0.0,0.0,0.0,0.0,0.0,0.0,0.0,0.0,0
31.0,1.0,15.0,21.0,16.0,-3.0,11.0,-16.0,0.0,0.0,0.0,0.0,0.0,0.0,0.0,0.0,0
31.0,18.0,57.0,48.0,28.0,19.0,35.0,-15.0,0.0,0.0,0.0,0.0,0.0,0.0,0.0,0.0,0
0.0,26.0,72.0,63.0,21.0,24.0,35.0,5.0,0.0,0.0,0.0,0.0,0.0,0.0,0.0,0.0,0
-28.0,0.0,39.0,31.0,6.0,0.0,11.0,0.0,0.0,0.0,0.0,0.0,0.0,0.0,0.0,0.0,0
-10.0,-4.0,16.0,-2.0,-3.0,-5.0,5.0,-2.0,0.0,0.0,0.0,0.0,0.0,0.0,0.0,0.0,0
-4.0,4.0,-3.0,-18.0,-3.0,-3.0,-3.0,-8.0,0.0,0.0,0.0,0.0,0.0,0.0,0.0,0.0,0
5.0,3.0,-4.0,-20.0,-4.0,-5.0,-3.0,-6.0,0.0,0.0,0.0,0.0,0.0,0.0,0.0,0.0,0
6.0,8.0,14.0,-16.0,-12.0,-10.0,-13.0,-5.0,0.0,0.0,0.0,0.0,0.0,0.0,0.0,0.0,0
-10.0,2.0,-6.0,-10.0,-14.0,-5.0,-11.0,-4.0,0.0,0.0,0.0,0.0,0.0,0.0,0.0,0.0,0
-25.0,-15.0,-46.0,-29.0,-10.0,-5.0,-3.0,-5.0,0.0,0.0,0.0,0.0,0.0,0.0,0.0,0.0,0
-10.0,-17.0,-50.0,-28.0,-11.0,-11.0,3.0,-8.0,0.0,0.0,0.0,0.0,0.0,0.0,0.0,0.0,0
16.0,-1.0,-22.0,-19.0,-15.0,-11.0,-9.0,-7.0,0.0,0.0,0.0,0.0,0.0,0.0,0.0,0.0,0
16.0,11.0,-6.0,-7.0,-7.0,-5.0,-18.0,0.0,0.0,0.0,0.0,0.0,0.0,0.0,0.0,0.0,0
17.0,-5.0,-12.0,-10.0,-10.0,-3.0,-22.0,2.0,0.0,0.0,0.0,0.0,0.0,0.0,0.0,0.0,0
-4.0,-25.0,-18.0,-2.0,-8.0,-5.0,-28.0,-3.0,0.0,0.0,0.0,0.0,0.0,0.0,0.0,0.0,0
-14.0,-26.0,-8.0,8.0,0.0,0.0,-21.0,-2.0,0.0,0.0,0.0,0.0,0.0,0.0,0.0,0.0,0
-20.0,-13.0,-10.0,2.0,-7.0,-4.0,-9.0,7.0,0.0,0.0,0.0,0.0,0.0,0.0,0.0,0.0,0
-4.0,-12.0,-17.0,5.0,5.0,1.0,-8.0,23.0,0.0,0.0,0.0,0.0,0.0,0.0,0.0,0.0,0
50.0,6.0,10.0,26.0,29.0,26.0,20.0,9.0,0.0,0.0,0.0,0.0,0.0,0.0,0.0,0.0,0
29.0,11.0,11.0,17.0,21.0,18.0,22.0,0.0,0.0,0.0,0.0,0.0,0.0,0.0,0.0,0.0,0
-7.0,-2.0,11.0,5.0,8.0,-1.0,15.0,1.0,0.0,0.0,0.0,0.0,0.0,0.0,0.0,0.0,0
-36.0,6.0,30.0,6.0,2.0,-4.0,16.0,-8.0,0.0,0.0,0.0,0.0,0.0,0.0,0.0,0.0,0
-52.0,-4.0,26.0,-7.0,-14.0,-9.0,10.0,-14.0,0.0,0.0,0.0,0.0,0.0,0.0,0.0,0.0,0
-58.0,-7.0,12.0,-2.0,-15.0,-12.0,-6.0,-19.0,0.0,0.0,0.0,0.0,0.0,0.0,0.0,0.0,0
-52.0,19.0,10.0,-9.0,-15.0,-11.0,1.0,-15.0,0.0,0.0,0.0,0.0,0.0,0.0,0.0,0.0,0
18.0,50.0,6.0,-15.0,-13.0,-7.0,1.0,-16.0,0.0,0.0,0.0,0.0,0.0,0.0,0.0,0.0,0
73.0,42.0,-9.0,-15.0,-6.0,-2.0,1.0,-12.0,0.0,0.0,0.0,0.0,0.0,0.0,0.0,0.0,0
56.0,18.0,-20.0,-9.0,4.0,1.0,-6.0,2.0,0.0,0.0,0.0,0.0,0.0,0.0,0.0,0.0,0
12.0,-16.0,-15.0,3.0,7.0,-6.0,-8.0,2.0,0.0,0.0,0.0,0.0,0.0,0.0,0.0,0.0,0
-19.0,-54.0,-7.0,14.0,3.0,-2.0,6.0,-5.0,0.0,0.0,0.0,0.0,0.0,0.0,0.0,0.0,0
-20.0,-61.0,-3.0,11.0,2.0,1.0,1.0,1.0,0.0,0.0,0.0,0.0,0.0,0.0,0.0,0.0,0
-22.0,-52.0,-11.0,2.0,0.0,-4.0,-13.0,0.0,0.0,0.0,0.0,0.0,0.0,0.0,0.0,0.0,0
-9.0,-21.0,-23.0,-6.0,-3.0,-10.0,-18.0,6.0,0.0,0.0,0.0,0.0,0.0,0.0,0.0,0.0,0
-25.0,-2.0,-22.0,-13.0,-13.0,-12.0,-15.0,6.0,0.0,0.0,0.0,0.0,0.0,0.0,0.0,0.0,0
-17.0,5.0,-26.0,-11.0,-14.0,-13.0,-17.0,5.0,0.0,0.0,0.0,0.0,0.0,0.0,0.0,0.0,0
16.0,13.0,-10.0,-7.0,-2.0,0.0,-12.0,5.0,0.0,0.0,0.0,0.0,0.0,0.0,0.0,0.0,0
33.0,27.0,4.0,-7.0,7.0,15.0,-9.0,10.0,0.0,0.0,0.0,0.0,0.0,0.0,0.0,0.0,0
25.0,10.0,-25.0,-15.0,-4.0,6.0,-8.0,1.0,0.0,0.0,0.0,0.0,0.0,0.0,0.0,0.0,0
-22.0,-9.0,-33.0,-15.0,-2.0,-2.0,-13.0,-10.0,0.0,0.0,0.0,0.0,0.0,0.0,0.0,0.0,0
-26.0,5.0,9.0,0.0,-1.0,6.0,2.0,-16.0,0.0,0.0,0.0,0.0,0.0,0.0,0.0,0.0,0
-20.0,17.0,46.0,9.0,-1.0,-1.0,10.0,-20.0,0.0,0.0,0.0,0.0,0.0,0.0,0.0,0.0,0
56.0,27.0,66.0,16.0,3.0,-5.0,20.0,-5.0,0.0,0.0,0.0,0.0,0.0,0.0,0.0,0.0,0
80.0,12.0,46.0,7.0,-5.0,-4.0,27.0,3.0,0.0,0.0,0.0,0.0,0.0,0.0,0.0,0.0,0
-17.0,-9.0,16.0,7.0,-10.0,-10.0,10.0,-2.0,0.0,0.0,0.0,0.0,0.0,0.0,0.0,0.0,0
-73.0,-20.0,1.0,11.0,-8.0,-7.0,1.0,-6.0,0.0,0.0,0.0,0.0,0.0,0.0,0.0,0.0,0
-74.0,-30.0,-36.0,-6.0,2.0,3.0,5.0,-2.0,0.0,0.0,0.0,0.0,0.0,0.0,0.0,0.0,0
-90.0,-40.0,-68.0,-20.0,3.0,1.0,8.0,1.0,0.0,0.0,0.0,0.0,0.0,0.0,0.0,0.0,0
-29.0,-18.0,-57.0,-22.0,-7.0,-5.0,-6.0,1.0,0.0,0.0,0.0,0.0,0.0,0.0,0.0,0.0,0
59.0,21.0,-8.0,-8.0,-5.0,-3.0,-11.0,-6.0,0.0,0.0,0.0,0.0,0.0,0.0,0.0,0.0,0
65.0,29.0,24.0,2.0,3.0,0.0,-10.0,-15.0,0.0,0.0,0.0,0.0,0.0,0.0,0.0,0.0,0
33.0,1.0,12.0,-7.0,7.0,-1.0,-5.0,-5.0,0.0,0.0,0.0,0.0,0.0,0.0,0.0,0.0,0
11.0,-20.0,0.0,-1.0,3.0,-13.0,-15.0,1.0,0.0,0.0,0.0,0.0,0.0,0.0,0.0,0.0,0
-14.0,-9.0,5.0,3.0,-7.0,-7.0,-17.0,-6.0,0.0,0.0,0.0,0.0,0.0,0.0,0.0,0.0,0
7.0,27.0,37.0,19.0,-3.0,9.0,-9.0,-29.0,0.0,0.0,0.0,0.0,0.0,0.0,0.0,0.0,0
31.0,19.0,23.0,15.0,-7.0,-10.0,-15.0,7.0,0.0,0.0,0.0,0.0,0.0,0.0,0.0,0.0,0
37.0,1.0,-16.0,-8.0,-10.0,-5.0,-18.0,26.0,0.0,0.0,0.0,0.0,0.0,0.0,0.0,0.0,0
7.0,4.0,-7.0,-2.0,-4.0,8.0,-5.0,16.0,0.0,0.0,0.0,0.0,0.0,0.0,0.0,0.0,0
-43.0,-12.0,-14.0,9.0,6.0,3.0,-8.0,11.0,0.0,0.0,0.0,0.0,0.0,0.0,0.0,0.0,0
-58.0,-18.0,-36.0,-9.0,-1.0,-5.0,-11.0,4.0,0.0,0.0,0.0,0.0,0.0,0.0,0.0,0.0,0
-27.0,-32.0,-58.0,-19.0,-6.0,-6.0,4.0,-11.0,0.0,0.0,0.0,0.0,0.0,0.0,0.0,0.0,0
-4.0,-46.0,-40.0,-14.0,-6.0,4.0,18.0,-12.0,0.0,0.0,0.0,0.0,0.0,0.0,0.0,0.0,0
-24.0,-31.0,9.0,5.0,7.0,7.0,21.0,-14.0,0.0,0.0,0.0,0.0,0.0,0.0,0.0,0.0,0
-34.0,-11.0,38.0,7.0,14.0,2.0,17.0,-11.0,0.0,0.0,0.0,0.0,0.0,0.0,0.0,0.0,0
12.0,16.0,44.0,4.0,-2.0,-2.0,5.0,-12.0,0.0,0.0,0.0,0.0,0.0,0.0,0.0,0.0,0
40.0,39.0,32.0,1.0,-10.0,-7.0,-1.0,-12.0,0.0,0.0,0.0,0.0,0.0,0.0,0.0,0.0,0
41.0,59.0,36.0,15.0,0.0,9.0,16.0,1.0,0.0,0.0,0.0,0.0,0.0,0.0,0.0,0.0,0
0.0,44.0,22.0,7.0,3.0,6.0,14.0,10.0,0.0,0.0,0.0,0.0,0.0,0.0,0.0,0.0,0
-49.0,-3.0,-11.0,-24.0,-25.0,-22.0,-19.0,-11.0,0.0,0.0,0.0,0.0,0.0,0.0,0.0,0.0,0
-12.0,-2.0,-8.0,-15.0,-17.0,-8.0,-10.0,-3.0,0.0,0.0,0.0,0.0,0.0,0.0,0.0,0.0,0
-6.0,-6.0,-13.0,-13.0,-9.0,-8.0,-12.0,-4.0,0.0,0.0,0.0,0.0,0.0,0.0,0.0,0.0,0
-10.0,-23.0,-30.0,-24.0,-13.0,-9.0,-12.0,-11.0,0.0,0.0,0.0,0.0,0.0,0.0,0.0,0.0,0
4.0,-42.0,-50.0,-27.0,-13.0,-6.0,-21.0,-8.0,0.0,0.0,0.0,0.0,0.0,0.0,0.0,0.0,0
19.0,-38.0,-43.0,-10.0,-5.0,-13.0,-16.0,-1.0,0.0,0.0,0.0,0.0,0.0,0.0,0.0,0.0,0
17.0,-15.0,-24.0,1.0,1.0,-7.0,-7.0,3.0,0.0,0.0,0.0,0.0,0.0,0.0,0.0,0.0,0
10.0,-14.0,-24.0,-2.0,7.0,-1.0,-15.0,2.0,0.0,0.0,0.0,0.0,0.0,0.0,0.0,0.0,0
14.0,-5.0,-13.0,15.0,13.0,9.0,-14.0,12.0,0.0,0.0,0.0,0.0,0.0,0.0,0.0,0.0,0
9.0,7.0,5.0,22.0,14.0,15.0,-3.0,14.0,0.0,0.0,0.0,0.0,0.0,0.0,0.0,0.0,0
-11.0,14.0,26.0,24.0,8.0,7.0,-3.0,12.0,0.0,0.0,0.0,0.0,0.0,0.0,0.0,0.0,0
-14.0,8.0,35.0,25.0,1.0,5.0,4.0,8.0,0.0,0.0,0.0,0.0,0.0,0.0,0.0,0.0,0
-15.0,9.0,33.0,12.0,0.0,3.0,14.0,-3.0,0.0,0.0,0.0,0.0,0.0,0.0,0.0,0.0,0
-5.0,9.0,37.0,12.0,-1.0,2.0,15.0,-9.0,0.0,0.0,0.0,0.0,0.0,0.0,0.0,0.0,0
-15.0,13.0,35.0,-1.0,-4.0,0.0,14.0,-11.0,0.0,0.0,0.0,0.0,0.0,0.0,0.0,0.0,0
-24.0,-4.0,7.0,-24.0,-13.0,-13.0,9.0,-16.0,0.0,0.0,0.0,0.0,0.0,0.0,0.0,0.0,0
-18.0,-17.0,-43.0,-40.0,-16.0,-16.0,-3.0,-11.0,0.0,0.0,0.0,0.0,0.0,0.0,0.0,0.0,0
-6.0,-4.0,-52.0,-35.0,-12.0,-11.0,-1.0,-14.0,0.0,0.0,0.0,0.0,0.0,0.0,0.0,0.0,0
-4.0,5.0,-35.0,-15.0,-7.0,-3.0,-1.0,-13.0,0.0,0.0,0.0,0.0,0.0,0.0,0.0,0.0,0
2.0,5.0,-6.0,-1.0,1.0,0.0,-1.0,-6.0,0.0,0.0,0.0,0.0,0.0,0.0,0.0,0.0,0
18.0,8.0,26.0,20.0,14.0,-4.0,-4.0,2.0,0.0,0.0,0.0,0.0,0.0,0.0,0.0,0.0,0
19.0,16.0,43.0,22.0,9.0,-4.0,-3.0,4.0,0.0,0.0,0.0,0.0,0.0,0.0,0.0,0.0,0
17.0,8.0,33.0,14.0,-7.0,3.0,-8.0,-2.0,0.0,0.0,0.0,0.0,0.0,0.0,0.0,0.0,0
1.0,-16.0,7.0,6.0,-5.0,7.0,-3.0,-7.0,0.0,0.0,0.0,0.0,0.0,0.0,0.0,0.0,0
-28.0,-42.0,-15.0,-3.0,0.0,0.0,-2.0,1.0,0.0,0.0,0.0,0.0,0.0,0.0,0.0,0.0,0
-42.0,-41.0,-12.0,-6.0,-1.0,-3.0,-5.0,10.0,0.0,0.0,0.0,0.0,0.0,0.0,0.0,0.0,0
-22.0,-15.0,-7.0,-10.0,-7.0,-8.0,-7.0,8.0,0.0,0.0,0.0,0.0,0.0,0.0,0.0,0.0,0
11.0,-4.0,-54.0,-21.0,-18.0,-6.0,-26.0,3.0,0.0,0.0,0.0,0.0,0.0,0.0,0.0,0.0,0
32.0,0.0,-72.0,-28.0,-19.0,-12.0,-25.0,-2.0,0.0,0.0,0.0,0.0,0.0,0.0,0.0,0.0,0
25.0,11.0,-42.0,-23.0,-8.0,-10.0,-9.0,-2.0,0.0,0.0,0.0,0.0,0.0,0.0,0.0,0.0,0
20.0,13.0,-11.0,-12.0,-3.0,-8.0,-11.0,-2.0,0.0,0.0,0.0,0.0,0.0,0.0,0.0,0.0,0
9.0,2.0,11.0,5.0,0.0,3.0,-5.0,6.0,0.0,0.0,0.0,0.0,0.0,0.0,0.0,0.0,0
-1.0,-2.0,20.0,7.0,8.0,11.0,4.0,1.0,0.0,0.0,0.0,0.0,0.0,0.0,0.0,0.0,0
-20.0,14.0,32.0,17.0,19.0,16.0,9.0,-18.0,0.0,0.0,0.0,0.0,0.0,0.0,0.0,0.0,0
-56.0,28.0,59.0,28.0,18.0,13.0,22.0,-14.0,0.0,0.0,0.0,0.0,0.0,0.0,0.0,0.0,0
-80.0,-2.0,26.0,5.0,2.0,-5.0,18.0,-17.0,0.0,0.0,0.0,0.0,0.0,0.0,0.0,0.0,0
6.0,-14.0,-18.0,-8.0,-7.0,-7.0,8.0,-2.0,0.0,0.0,0.0,0.0,0.0,0.0,0.0,0.0,0
89.0,9.0,-1.0,-5.0,1.0,-2.0,13.0,12.0,0.0,0.0,0.0,0.0,0.0,0.0,0.0,0.0,0
37.0,-4.0,5.0,5.0,-1.0,-4.0,11.0,7.0,0.0,0.0,0.0,0.0,0.0,0.0,0.0,0.0,0
-33.0,-40.0,-3.0,0.0,-9.0,-8.0,5.0,3.0,0.0,0.0,0.0,0.0,0.0,0.0,0.0,0.0,0
-51.0,-31.0,-14.0,-14.0,-15.0,-11.0,-14.0,-7.0,0.0,0.0,0.0,0.0,0.0,0.0,0.0,0.0,0
-59.0,-24.0,-24.0,-24.0,-19.0,-16.0,-29.0,-14.0,0.0,0.0,0.0,0.0,0.0,0.0,0.0,0.0,0
-26.0,4.0,-14.0,-14.0,-7.0,-1.0,-15.0,-38.0,0.0,0.0,0.0,0.0,0.0,0.0,0.0,0.0,0
94.0,68.0,29.0,28.0,21.0,29.0,29.0,-9.0,0.0,0.0,0.0,0.0,0.0,0.0,0.0,0.0,0
128.0,55.0,8.0,8.0,10.0,7.0,11.0,53.0,0.0,0.0,0.0,0.0,0.0,0.0,0.0,0.0,0
16.0,-12.0,-29.0,-13.0,-13.0,-29.0,-34.0,-1.0,0.0,0.0,0.0,0.0,0.0,0.0,0.0,0.0,0
-37.0,-39.0,-12.0,5.0,-2.0,-24.0,-34.0,-18.0,0.0,0.0,0.0,0.0,0.0,0.0,0.0,0.0,0
-73.0,-46.0,-8.0,13.0,2.0,-8.0,-33.0,2.0,0.0,0.0,0.0,0.0,0.0,0.0,0.0,0.0,0
-91.0,-53.0,-28.0,-2.0,-8.0,7.0,-22.0,6.0,0.0,0.0,0.0,0.0,0.0,0.0,0.0,0.0,0
-81.0,-31.0,-21.0,-21.0,-14.0,-5.0,3.0,3.0,0.0,0.0,0.0,0.0,0.0,0.0,0.0,0.0,0
-8.0,14.0,6.0,-4.0,-7.0,6.0,5.0,7.0,0.0,0.0,0.0,0.0,0.0,0.0,0.0,0.0,0
73.0,26.0,22.0,-2.0,2.0,7.0,4.0,7.0,0.0,0.0,0.0,0.0,0.0,0.0,0.0,0.0,0
105.0,22.0,15.0,-14.0,-8.0,-2.0,9.0,2.0,0.0,0.0,0.0,0.0,0.0,0.0,0.0,0.0,0
63.0,11.0,8.0,-11.0,-13.0,-3.0,12.0,-6.0,0.0,0.0,0.0,0.0,0.0,0.0,0.0,0.0,0
11.0,10.0,1.0,-4.0,-2.0,-3.0,20.0,-17.0,0.0,0.0,0.0,0.0,0.0,0.0,0.0,0.0,0
-4.0,3.0,-6.0,-6.0,4.0,5.0,17.0,-16.0,0.0,0.0,0.0,0.0,0.0,0.0,0.0,0.0,0
-34.0,0.0,-11.0,-11.0,5.0,6.0,11.0,0.0,0.0,0.0,0.0,0.0,0.0,0.0,0.0,0.0,0
-97.0,-24.0,-14.0,-3.0,3.0,0.0,2.0,-5.0,0.0,0.0,0.0,0.0,0.0,0.0,0.0,0.0,0
-93.0,-15.0,-4.0,11.0,-3.0,-6.0,-2.0,-10.0,0.0,0.0,0.0,0.0,0.0,0.0,0.0,0.0,0
-39.0,12.0,-1.0,13.0,-1.0,-11.0,-5.0,-3.0,0.0,0.0,0.0,0.0,0.0,0.0,0.0,0.0,0
7.0,25.0,-1.0,2.0,3.0,-4.0,-2.0,3.0,0.0,0.0,0.0,0.0,0.0,0.0,0.0,0.0,0
31.0,25.0,31.0,10.0,0.0,-1.0,-4.0,8.0,0.0,0.0,0.0,0.0,0.0,0.0,0.0,0.0,0
39.0,11.0,38.0,12.0,-9.0,-4.0,-12.0,-6.0,0.0,0.0,0.0,0.0,0.0,0.0,0.0,0.0,0
51.0,-23.0,5.0,0.0,-4.0,-8.0,-11.0,-25.0,0.0,0.0,0.0,0.0,0.0,0.0,0.0,0.0,0
71.0,-30.0,-20.0,-5.0,-6.0,-14.0,-12.0,-18.0,0.0,0.0,0.0,0.0,0.0,0.0,0.0,0.0,0
24.0,-21.0,-18.0,-2.0,-2.0,-12.0,-13.0,0.0,0.0,0.0,0.0,0.0,0.0,0.0,0.0,0.0,0
-35.0,-19.0,-5.0,-6.0,2.0,-1.0,-10.0,13.0,0.0,0.0,0.0,0.0,0.0,0.0,0.0,0.0,0
-24.0,-14.0,-18.0,-12.0,-8.0,-2.0,-12.0,24.0,0.0,0.0,0.0,0.0,0.0,0.0,0.0,0.0,0
-33.0,-12.0,-26.0,-4.0,-4.0,-1.0,-19.0,16.0,0.0,0.0,0.0,0.0,0.0,0.0,0.0,0.0,0
-48.0,-3.0,-21.0,-7.0,1.0,-5.0,-14.0,7.0,0.0,0.0,0.0,0.0,0.0,0.0,0.0,0.0,0
-14.0,1.0,-24.0,-24.0,-11.0,-6.0,-8.0,6.0,0.0,0.0,0.0,0.0,0.0,0.0,0.0,0.0,0
12.0,7.0,-24.0,-25.0,-13.0,9.0,-1.0,-6.0,0.0,0.0,0.0,0.0,0.0,0.0,0.0,0.0,0
17.0,-6.0,-35.0,-23.0,-9.0,5.0,6.0,-14.0,0.0,0.0,0.0,0.0,0.0,0.0,0.0,0.0,0
19.0,6.0,-19.0,-6.0,-3.0,1.0,10.0,-10.0,0.0,0.0,0.0,0.0,0.0,0.0,0.0,0.0,0
3.0,17.0,13.0,-1.0,6.0,2.0,25.0,-10.0,0.0,0.0,0.0,0.0,0.0,0.0,0.0,0.0,0
-9.0,10.0,22.0,4.0,-2.0,-3.0,17.0,-9.0,0.0,0.0,0.0,0.0,0.0,0.0,0.0,0.0,0
-21.0,5.0,37.0,5.0,-5.0,-9.0,6.0,-11.0,0.0,0.0,0.0,0.0,0.0,0.0,0.0,0.0,0
-8.0,23.0,58.0,31.0,12.0,9.0,22.0,3.0,0.0,0.0,0.0,0.0,0.0,0.0,0.0,0.0,0
-40.0,-10.0,24.0,12.0,-5.0,-2.0,-5.0,-12.0,0.0,0.0,0.0,0.0,0.0,0.0,0.0,0.0,0
-3.0,-16.0,2.0,7.0,-7.0,-12.0,-8.0,-17.0,0.0,0.0,0.0,0.0,0.0,0.0,0.0,0.0,0
31.0,-5.0,1.0,11.0,18.0,-5.0,-8.0,-4.0,0.0,0.0,0.0,0.0,0.0,0.0,0.0,0.0,0
29.0,-10.0,-1.0,12.0,9.0,-5.0,-5.0,9.0,0.0,0.0,0.0,0.0,0.0,0.0,0.0,0.0,0
-15.0,-16.0,-15.0,-5.0,-7.0,-6.0,-2.0,7.0,0.0,0.0,0.0,0.0,0.0,0.0,0.0,0.0,0
-57.0,-1.0,-20.0,-5.0,-8.0,-6.0,-7.0,-2.0,0.0,0.0,0.0,0.0,0.0,0.0,0.0,0.0,0
-56.0,0.0,-17.0,4.0,-3.0,4.0,-3.0,10.0,0.0,0.0,0.0,0.0,0.0,0.0,0.0,0.0,0
-8.0,-5.0,3.0,3.0,-3.0,-3.0,-10.0,2.0,0.0,0.0,0.0,0.0,0.0,0.0,0.0,0.0,0
91.0,8.0,11.0,0.0,-1.0,-2.0,-17.0,3.0,0.0,0.0,0.0,0.0,0.0,0.0,0.0,0.0,0
81.0,8.0,-35.0,-28.0,-16.0,1.0,-17.0,5.0,0.0,0.0,0.0,0.0,0.0,0.0,0.0,0.0,0
35.0,-3.0,-51.0,-42.0,-20.0,-2.0,-22.0,1.0,0.0,0.0,0.0,0.0,0.0,0.0,0.0,0.0,0
6.0,-13.0,-35.0,-35.0,-7.0,-6.0,-13.0,-1.0,0.0,0.0,0.0,0.0,0.0,0.0,0.0,0.0,0
-13.0,-9.0,-2.0,-4.0,4.0,-13.0,-14.0,1.0,0.0,0.0,0.0,0.0,0.0,0.0,0.0,0.0,0
-37.0,-3.0,22.0,12.0,5.0,2.0,-3.0,2.0,0.0,0.0,0.0,0.0,0.0,0.0,0.0,0.0,0
-56.0,-15.0,10.0,5.0,-6.0,8.0,4.0,-4.0,0.0,0.0,0.0,0.0,0.0,0.0,0.0,0.0,0
-51.0,-18.0,-7.0,0.0,-13.0,-3.0,12.0,-13.0,0.0,0.0,0.0,0.0,0.0,0.0,0.0,0.0,0
-30.0,-7.0,-9.0,5.0,-7.0,-2.0,30.0,-5.0,0.0,0.0,0.0,0.0,0.0,0.0,0.0,0.0,0
-12.0,8.0,3.0,11.0,7.0,5.0,29.0,-8.0,0.0,0.0,0.0,0.0,0.0,0.0,0.0,0.0,0
1.0,10.0,14.0,17.0,15.0,1.0,15.0,-1.0,0.0,0.0,0.0,0.0,0.0,0.0,0.0,0.0,0
10.0,15.0,29.0,20.0,12.0,-4.0,-4.0,1.0,0.0,0.0,0.0,0.0,0.0,0.0,0.0,0.0,0
2.0,4.0,26.0,4.0,-1.0,-4.0,0.0,-5.0,0.0,0.0,0.0,0.0,0.0,0.0,0.0,0.0,0
-5.0,4.0,17.0,-7.0,-5.0,-1.0,4.0,-11.0,0.0,0.0,0.0,0.0,0.0,0.0,0.0,0.0,0
24.0,16.0,2.0,-17.0,-4.0,1.0,-5.0,-4.0,0.0,0.0,0.0,0.0,0.0,0.0,0.0,0.0,0
45.0,11.0,-13.0,-21.0,-6.0,-6.0,-9.0,0.0,0.0,0.0,0.0,0.0,0.0,0.0,0.0,0.0,0
7.0,4.0,-15.0,-18.0,-8.0,-8.0,-11.0,-3.0,0.0,0.0,0.0,0.0,0.0,0.0,0.0,0.0,0
2.0,-11.0,-13.0,-10.0,-11.0,-9.0,-18.0,-8.0,0.0,0.0,0.0,0.0,0.0,0.0,0.0,0.0,0
7.0,-22.0,-18.0,-4.0,-1.0,-8.0,-18.0,-7.0,0.0,0.0,0.0,0.0,0.0,0.0,0.0,0.0,0
-23.0,-41.0,-22.0,1.0,-3.0,1.0,-13.0,1.0,0.0,0.0,0.0,0.0,0.0,0.0,0.0,0.0,0
-20.0,-30.0,-9.0,12.0,5.0,3.0,-5.0,4.0,0.0,0.0,0.0,0.0,0.0,0.0,0.0,0.0,0
10.0,-3.0,15.0,15.0,1.0,-3.0,-10.0,12.0,0.0,0.0,0.0,0.0,0.0,0.0,0.0,0.0,0
0.0,-10.0,8.0,-5.0,-10.0,-5.0,-21.0,16.0,0.0,0.0,0.0,0.0,0.0,0.0,0.0,0.0,0
-4.0,-4.0,-33.0,-20.0,-6.0,-2.0,-13.0,2.0,0.0,0.0,0.0,0.0,0.0,0.0,0.0,0.0,0
7.0,21.0,-53.0,-22.0,0.0,-5.0,-6.0,-11.0,0.0,0.0,0.0,0.0,0.0,0.0,0.0,0.0,0
6.0,32.0,-19.0,1.0,2.0,-1.0,-3.0,-12.0,0.0,0.0,0.0,0.0,0.0,0.0,0.0,0.0,0
-13.0,-1.0,18.0,14.0,5.0,-2.0,7.0,9.0,0.0,0.0,0.0,0.0,0.0,0.0,0.0,0.0,0
-30.0,-17.0,35.0,24.0,6.0,4.0,19.0,10.0,0.0,0.0,0.0,0.0,0.0,0.0,0.0,0.0,0
-26.0,7.0,38.0,14.0,5.0,5.0,23.0,-1.0,0.0,0.0,0.0,0.0,0.0,0.0,0.0,0.0,0
-2.0,9.0,26.0,-2.0,2.0,4.0,16.0,-11.0,0.0,0.0,0.0,0.0,0.0,0.0,0.0,0.0,0
27.0,6.0,-3.0,-12.0,-8.0,-1.0,7.0,-13.0,0.0,0.0,0.0,0.0,0.0,0.0,0.0,0.0,0
11.0,2.0,-2.0,-16.0,-6.0,-7.0,-4.0,-16.0,0.0,0.0,0.0,0.0,0.0,0.0,0.0,0.0,0
2.0,0.0,5.0,-19.0,-6.0,-8.0,3.0,-16.0,0.0,0.0,0.0,0.0,0.0,0.0,0.0,0.0,0
-7.0,-5.0,6.0,-15.0,-11.0,-12.0,-4.0,-11.0,0.0,0.0,0.0,0.0,0.0,0.0,0.0,0.0,0
-26.0,-14.0,-10.0,-13.0,-8.0,-18.0,-14.0,-11.0,0.0,0.0,0.0,0.0,0.0,0.0,0.0,0.0,0
-33.0,-30.0,-48.0,-21.0,-12.0,-12.0,-12.0,-7.0,0.0,0.0,0.0,0.0,0.0,0.0,0.0,0.0,0
3.0,-43.0,-43.0,-13.0,-12.0,0.0,8.0,2.0,0.0,0.0,0.0,0.0,0.0,0.0,0.0,0.0,0
-8.0,-22.0,-16.0,-8.0,-10.0,2.0,-4.0,6.0,0.0,0.0,0.0,0.0,0.0,0.0,0.0,0.0,0
-4.0,-2.0,-9.0,4.0,2.0,1.0,-7.0,18.0,0.0,0.0,0.0,0.0,0.0,0.0,0.0,0.0,0
21.0,19.0,12.0,20.0,12.0,6.0,2.0,25.0,0.0,0.0,0.0,0.0,0.0,0.0,0.0,0.0,0
32.0,52.0,29.0,22.0,14.0,-1.0,-1.0,4.0,0.0,0.0,0.0,0.0,0.0,0.0,0.0,0.0,0
17.0,41.0,29.0,28.0,18.0,-3.0,-21.0,-4.0,0.0,0.0,0.0,0.0,0.0,0.0,0.0,0.0,0
21.0,11.0,23.0,21.0,8.0,-5.0,-32.0,-4.0,0.0,0.0,0.0,0.0,0.0,0.0,0.0,0.0,0
31.0,2.0,6.0,4.0,-1.0,4.0,-24.0,-30.0,0.0,0.0,0.0,0.0,0.0,0.0,0.0,0.0,0
6.0,-20.0,-33.0,-5.0,-11.0,4.0,-11.0,-18.0,0.0,0.0,0.0,0.0,0.0,0.0,0.0,0.0,0
-29.0,-52.0,-48.0,-22.0,-22.0,-4.0,1.0,19.0,0.0,0.0,0.0,0.0,0.0,0.0,0.0,0.0,0
-32.0,-41.0,-29.0,-18.0,-14.0,-6.0,16.0,13.0,0.0,0.0,0.0,0.0,0.0,0.0,0.0,0.0,0
-20.0,-8.0,-3.0,-8.0,-6.0,2.0,18.0,0.0,0.0,0.0,0.0,0.0,0.0,0.0,0.0,0.0,0
-11.0,12.0,25.0,-3.0,2.0,0.0,22.0,-4.0,0.0,0.0,0.0,0.0,0.0,0.0,0.0,0.0,0
-31.0,19.0,39.0,9.0,13.0,7.0,18.0,-3.0,0.0,0.0,0.0,0.0,0.0,0.0,0.0,0.0,0
-39.0,34.0,37.0,3.0,12.0,7.0,10.0,-13.0,0.0,0.0,0.0,0.0,0.0,0.0,0.0,0.0,0
-12.0,25.0,2.0,-18.0,-19.0,-14.0,-7.0,-12.0,0.0,0.0,0.0,0.0,0.0,0.0,0.0,0.0,0
14.0,-12.0,-24.0,-39.0,-35.0,-21.0,-8.0,-6.0,0.0,0.0,0.0,0.0,0.0,0.0,0.0,0.0,0
33.0,-28.0,-26.0,-38.0,-29.0,-21.0,-7.0,0.0,0.0,0.0,0.0,0.0,0.0,0.0,0.0,0.0,0
47.0,-4.0,6.0,2.0,14.0,12.0,1.0,0.0,0.0,0.0,0.0,0.0,0.0,0.0,0.0,0.0,0
15.0,-2.0,0.0,7.0,22.0,20.0,12.0,-5.0,0.0,0.0,0.0,0.0,0.0,0.0,0.0,0.0,0
-55.0,-39.0,-58.0,-23.0,-4.0,-7.0,2.0,-6.0,0.0,0.0,0.0,0.0,0.0,0.0,0.0,0.0,0
-45.0,-35.0,-56.0,-10.0,-6.0,-10.0,-16.0,-9.0,0.0,0.0,0.0,0.0,0.0,0.0,0.0,0.0,0
2.0,-5.0,-7.0,8.0,6.0,-12.0,-19.0,8.0,0.0,0.0,0.0,0.0,0.0,0.0,0.0,0.0,0
-1.0,15.0,25.0,25.0,2.0,-7.0,-17.0,14.0,0.0,0.0,0.0,0.0,0.0,0.0,0.0,0.0,0
-24.0,17.0,42.0,35.0,-1.0,-5.0,-9.0,0.0,0.0,0.0,0.0,0.0,0.0,0.0,0.0,0.0,0
-36.0,8.0,37.0,33.0,-1.0,3.0,-21.0,-4.0,0.0,0.0,0.0,0.0,0.0,0.0,0.0,0.0,0
28.0,18.0,27.0,25.0,7.0,7.0,-15.0,-1.0,0.0,0.0,0.0,0.0,0.0,0.0,0.0,0.0,0
128.0,35.0,-2.0,7.0,6.0,8.0,-8.0,11.0,0.0,0.0,0.0,0.0,0.0,0.0,0.0,0.0,0
80.0,16.0,-46.0,-26.0,-6.0,-6.0,-18.0,13.0,0.0,0.0,0.0,0.0,0.0,0.0,0.0,0.0,0
22.0,3.0,-32.0,-19.0,-8.0,3.0,0.0,5.0,0.0,0.0,0.0,0.0,0.0,0.0,0.0,0.0,0
-53.0,-41.0,-16.0,-9.0,-3.0,-2.0,16.0,-10.0,0.0,0.0,0.0,0.0,0.0,0.0,0.0,0.0,0
-63.0,-33.0,23.0,-1.0,9.0,5.0,23.0,-22.0,0.0,0.0,0.0,0.0,0.0,0.0,0.0,0.0,0
-41.0,-17.0,25.0,-18.0,-9.0,-2.0,8.0,-32.0,0.0,0.0,0.0,0.0,0.0,0.0,0.0,0.0,0
-68.0,-33.0,10.0,-25.0,-19.0,-13.0,10.0,-6.0,0.0,0.0,0.0,0.0,0.0,0.0,0.0,0.0,0
-56.0,-26.0,11.0,-3.0,-6.0,-6.0,12.0,17.0,0.0,0.0,0.0,0.0,0.0,0.0,0.0,0.0,0
-20.0,9.0,11.0,7.0,1.0,-2.0,8.0,14.0,0.0,0.0,0.0,0.0,0.0,0.0,0.0,0.0,0
22.0,38.0,6.0,6.0,11.0,2.0,4.0,1.0,0.0,0.0,0.0,0.0,0.0,0.0,0.0,0.0,0
22.0,37.0,-16.0,-5.0,6.0,2.0,-4.0,-4.0,0.0,0.0,0.0,0.0,0.0,0.0,0.0,0.0,0
26.0,18.0,-28.0,-15.0,-3.0,-3.0,-10.0,-10.0,0.0,0.0,0.0,0.0,0.0,0.0,0.0,0.0,0
7.0,-8.0,-44.0,-31.0,-18.0,-11.0,-14.0,-20.0,0.0,0.0,0.0,0.0,0.0,0.0,0.0,0.0,0
9.0,-17.0,-37.0,-24.0,-14.0,-8.0,-6.0,-18.0,0.0,0.0,0.0,0.0,0.0,0.0,0.0,0.0,0
11.0,-11.0,-16.0,-7.0,-12.0,-4.0,0.0,-2.0,0.0,0.0,0.0,0.0,0.0,0.0,0.0,0.0,0
14.0,-4.0,11.0,22.0,4.0,-6.0,-10.0,7.0,0.0,0.0,0.0,0.0,0.0,0.0,0.0,0.0,0
22.0,3.0,44.0,32.0,15.0,-3.0,-10.0,0.0,0.0,0.0,0.0,0.0,0.0,0.0,0.0,0.0,0
20.0,14.0,43.0,30.0,10.0,9.0,-11.0,-7.0,0.0,0.0,0.0,0.0,0.0,0.0,0.0,0.0,0
7.0,-7.0,6.0,1.0,-4.0,-5.0,-17.0,6.0,0.0,0.0,0.0,0.0,0.0,0.0,0.0,0.0,0
-10.0,-17.0,-19.0,-11.0,-8.0,-9.0,-18.0,15.0,0.0,0.0,0.0,0.0,0.0,0.0,0.0,0.0,0
-28.0,-25.0,-15.0,-3.0,-9.0,-5.0,-15.0,17.0,0.0,0.0,0.0,0.0,0.0,0.0,0.0,0.0,0
-20.0,-29.0,-36.0,-6.0,-3.0,-2.0,-8.0,8.0,0.0,0.0,0.0,0.0,0.0,0.0,0.0,0.0,0
-5.0,-25.0,-45.0,-18.0,0.0,-4.0,5.0,-3.0,0.0,0.0,0.0,0.0,0.0,0.0,0.0,0.0,0
0.0,-1.0,-16.0,-11.0,-5.0,2.0,13.0,-8.0,0.0,0.0,0.0,0.0,0.0,0.0,0.0,0.0,0
-10.0,17.0,10.0,4.0,-4.0,9.0,14.0,-7.0,0.0,0.0,0.0,0.0,0.0,0.0,0.0,0.0,0
-1.0,17.0,30.0,10.0,8.0,4.0,15.0,-9.0,0.0,0.0,0.0,0.0,0.0,0.0,0.0,0.0,0
-14.0,17.0,36.0,10.0,10.0,2.0,11.0,-11.0,0.0,0.0,0.0,0.0,0.0,0.0,0.0,0.0,0
-41.0,15.0,31.0,7.0,-4.0,-7.0,3.0,-17.0,0.0,0.0,0.0,0.0,0.0,0.0,0.0,0.0,0
-11.0,0.0,17.0,0.0,-4.0,-4.0,3.0,-10.0,0.0,0.0,0.0,0.0,0.0,0.0,0.0,0.0,0
-7.0,-15.0,-4.0,-8.0,-3.0,-5.0,2.0,2.0,0.0,0.0,0.0,0.0,0.0,0.0,0.0,0.0,0
-19.0,-10.0,-7.0,-13.0,-4.0,-1.0,-2.0,5.0,0.0,0.0,0.0,0.0,0.0,0.0,0.0,0.0,0
-6.0,2.0,-14.0,-15.0,-14.0,-4.0,-5.0,-2.0,0.0,0.0,0.0,0.0,0.0,0.0,0.0,0.0,0
13.0,13.0,-4.0,-9.0,-7.0,-2.0,-5.0,-8.0,0.0,0.0,0.0,0.0,0.0,0.0,0.0,0.0,0
34.0,19.0,11.0,5.0,0.0,-4.0,5.0,-6.0,0.0,0.0,0.0,0.0,0.0,0.0,0.0,0.0,0
45.0,23.0,22.0,13.0,6.0,-11.0,-5.0,-3.0,0.0,0.0,0.0,0.0,0.0,0.0,0.0,0.0,0
47.0,10.0,4.0,7.0,0.0,-13.0,-20.0,4.0,0.0,0.0,0.0,0.0,0.0,0.0,0.0,0.0,0
24.0,-19.0,-43.0,-17.0,-9.0,-12.0,-22.0,-1.0,0.0,0.0,0.0,0.0,0.0,0.0,0.0,0.0,0
-9.0,-48.0,-80.0,-31.0,-13.0,-13.0,-26.0,-5.0,0.0,0.0,0.0,0.0,0.0,0.0,0.0,0.0,0
-27.0,-65.0,-71.0,-16.0,-9.0,-4.0,-23.0,-6.0,0.0,0.0,0.0,0.0,0.0,0.0,0.0,0.0,0
-38.0,-72.0,-33.0,-7.0,-1.0,7.0,-12.0,5.0,0.0,0.0,0.0,0.0,0.0,0.0,0.0,0.0,0
-44.0,-37.0,1.0,4.0,3.0,9.0,-2.0,10.0,0.0,0.0,0.0,0.0,0.0,0.0,0.0,0.0,0
-26.0,-1.0,27.0,10.0,4.0,11.0,-1.0,6.0,0.0,0.0,0.0,0.0,0.0,0.0,0.0,0.0,0
-9.0,18.0,41.0,8.0,-2.0,8.0,1.0,-3.0,0.0,0.0,0.0,0.0,0.0,0.0,0.0,0.0,0
2.0,48.0,41.0,10.0,0.0,5.0,4.0,0.0,0.0,0.0,0.0,0.0,0.0,0.0,0.0,0.0,0
5.0,58.0,38.0,11.0,-1.0,-3.0,16.0,-3.0,0.0,0.0,0.0,0.0,0.0,0.0,0.0,0.0,0
10.0,50.0,33.0,9.0,-2.0,1.0,23.0,-5.0,0.0,0.0,0.0,0.0,0.0,0.0,0.0,0.0,0
11.0,25.0,22.0,-8.0,0.0,-1.0,21.0,-13.0,0.0,0.0,0.0,0.0,0.0,0.0,0.0,0.0,0
6.0,9.0,-1.0,-11.0,1.0,-3.0,10.0,-14.0,0.0,0.0,0.0,0.0,0.0,0.0,0.0,0.0,0
13.0,10.0,5.0,5.0,1.0,-2.0,6.0,-6.0,0.0,0.0,0.0,0.0,0.0,0.0,0.0,0.0,0
21.0,-3.0,6.0,14.0,3.0,-6.0,-7.0,-2.0,0.0,0.0,0.0,0.0,0.0,0.0,0.0,0.0,0
-2.0,-37.0,-28.0,-1.0,-6.0,-12.0,-9.0,-2.0,0.0,0.0,0.0,0.0,0.0,0.0,0.0,0.0,0
-42.0,-67.0,-63.0,-16.0,-10.0,-6.0,-11.0,-7.0,0.0,0.0,0.0,0.0,0.0,0.0,0.0,0.0,0
-51.0,-49.0,-42.0,-11.0,-9.0,-3.0,1.0,2.0,0.0,0.0,0.0,0.0,0.0,0.0,0.0,0.0,0
-21.0,0.0,15.0,-1.0,-1.0,4.0,3.0,4.0,0.0,0.0,0.0,0.0,0.0,0.0,0.0,0.0,0
31.0,16.0,33.0,1.0,9.0,2.0,-4.0,-4.0,0.0,0.0,0.0,0.0,0.0,0.0,0.0,0.0,0
34.0,7.0,6.0,-6.0,3.0,1.0,-14.0,-3.0,0.0,0.0,0.0,0.0,0.0,0.0,0.0,0.0,0
5.0,-1.0,-15.0,-24.0,-12.0,-12.0,-15.0,1.0,0.0,0.0,0.0,0.0,0.0,0.0,0.0,0.0,0
-27.0,-10.0,-20.0,-26.0,-19.0,-16.0,-13.0,-9.0,0.0,0.0,0.0,0.0,0.0,0.0,0.0,0.0,0
24.0,-9.0,-31.0,-21.0,-15.0,-11.0,-26.0,-7.0,0.0,0.0,0.0,0.0,0.0,0.0,0.0,0.0,0
70.0,18.0,-23.0,-10.0,-9.0,-6.0,-29.0,2.0,0.0,0.0,0.0,0.0,0.0,0.0,0.0,0.0,0
2.0,15.0,-18.0,-6.0,-4.0,-6.0,-10.0,5.0,0.0,0.0,0.0,0.0,0.0,0.0,0.0,0.0,0
-6.0,-3.0,-6.0,1.0,-10.0,3.0,0.0,13.0,0.0,0.0,0.0,0.0,0.0,0.0,0.0,0.0,0
-4.0,-3.0,27.0,27.0,2.0,14.0,5.0,8.0,0.0,0.0,0.0,0.0,0.0,0.0,0.0,0.0,0
-38.0,-3.0,30.0,26.0,15.0,13.0,16.0,0.0,0.0,0.0,0.0,0.0,0.0,0.0,0.0,0.0,0
-21.0,0.0,5.0,0.0,17.0,-2.0,17.0,-6.0,0.0,0.0,0.0,0.0,0.0,0.0,0.0,0.0,0
-39.0,-2.0,1.0,0.0,7.0,-3.0,17.0,-11.0,0.0,0.0,0.0,0.0,0.0,0.0,0.0,0.0,0
-69.0,-9.0,-9.0,-4.0,5.0,-4.0,13.0,-15.0,0.0,0.0,0.0,0.0,0.0,0.0,0.0,0.0,0
-18.0,-12.0,2.0,6.0,5.0,2.0,8.0,-12.0,0.0,0.0,0.0,0.0,0.0,0.0,0.0,0.0,0
19.0,-7.0,30.0,19.0,3.0,2.0,12.0,-3.0,0.0,0.0,0.0,0.0,0.0,0.0,0.0,0.0,0
2.0,-16.0,17.0,1.0,-13.0,-5.0,3.0,-3.0,0.0,0.0,0.0,0.0,0.0,0.0,0.0,0.0,0
9.0,-9.0,-9.0,-21.0,-16.0,-5.0,1.0,-6.0,0.0,0.0,0.0,0.0,0.0,0.0,0.0,0.0,0
51.0,5.0,-6.0,-13.0,-10.0,-8.0,-7.0,-6.0,0.0,0.0,0.0,0.0,0.0,0.0,0.0,0.0,0
49.0,26.0,15.0,7.0,-8.0,-1.0,-14.0,-6.0,0.0,0.0,0.0,0.0,0.0,0.0,0.0,0.0,0
19.0,29.0,7.0,11.0,-9.0,-2.0,-9.0,-5.0,0.0,0.0,0.0,0.0,0.0,0.0,0.0,0.0,0
-3.0,23.0,-18.0,3.0,1.0,-5.0,-5.0,-1.0,0.0,0.0,0.0,0.0,0.0,0.0,0.0,0.0,0
1.0,13.0,-24.0,0.0,-2.0,-6.0,-11.0,-1.0,0.0,0.0,0.0,0.0,0.0,0.0,0.0,0.0,0
-14.0,4.0,-4.0,-1.0,-1.0,-12.0,-16.0,1.0,0.0,0.0,0.0,0.0,0.0,0.0,0.0,0.0,0
-62.0,-20.0,2.0,-1.0,4.0,-15.0,-15.0,12.0,0.0,0.0,0.0,0.0,0.0,0.0,0.0,0.0,0
-64.0,-41.0,-14.0,-20.0,-3.0,-5.0,-25.0,-4.0,0.0,0.0,0.0,0.0,0.0,0.0,0.0,0.0,0
-8.0,-53.0,-30.0,-30.0,-8.0,4.0,-15.0,1.0,0.0,0.0,0.0,0.0,0.0,0.0,0.0,0.0,0
38.0,-35.0,-25.0,-13.0,1.0,18.0,8.0,23.0,0.0,0.0,0.0,0.0,0.0,0.0,0.0,0.0,0
30.0,-35.0,-47.0,-30.0,-10.0,-2.0,-2.0,4.0,0.0,0.0,0.0,0.0,0.0,0.0,0.0,0.0,0
20.0,-15.0,-31.0,-21.0,-9.0,-3.0,-8.0,-10.0,0.0,0.0,0.0,0.0,0.0,0.0,0.0,0.0,0
10.0,24.0,-7.0,1.0,-2.0,-2.0,-5.0,-6.0,0.0,0.0,0.0,0.0,0.0,0.0,0.0,0.0,0
-20.0,37.0,11.0,11.0,-6.0,-3.0,9.0,-11.0,0.0,0.0,0.0,0.0,0.0,0.0,0.0,0.0,0
-47.0,30.0,34.0,20.0,-3.0,-5.0,20.0,-15.0,0.0,0.0,0.0,0.0,0.0,0.0,0.0,0.0,0
-21.0,36.0,60.0,34.0,6.0,5.0,24.0,-2.0,0.0,0.0,0.0,0.0,0.0,0.0,0.0,0.0,0
-10.0,16.0,46.0,23.0,3.0,-1.0,20.0,5.0,0.0,0.0,0.0,0.0,0.0,0.0,0.0,0.0,0
4.0,-9.0,24.0,0.0,-1.0,-4.0,3.0,-2.0,0.0,0.0,0.0,0.0,0.0,0.0,0.0,0.0,0
14.0,-13.0,6.0,-5.0,-1.0,-6.0,-3.0,-4.0,0.0,0.0,0.0,0.0,0.0,0.0,0.0,0.0,0
5.0,-5.0,-3.0,-6.0,-1.0,-13.0,-1.0,-7.0,0.0,0.0,0.0,0.0,0.0,0.0,0.0,0.0,0
16.0,-10.0,-15.0,-7.0,-3.0,-11.0,-8.0,-13.0,0.0,0.0,0.0,0.0,0.0,0.0,0.0,0.0,0
23.0,-13.0,-29.0,-12.0,-7.0,-1.0,-8.0,-10.0,0.0,0.0,0.0,0.0,0.0,0.0,0.0,0.0,0
-12.0,-13.0,-34.0,-19.0,-2.0,0.0,-8.0,1.0,0.0,0.0,0.0,0.0,0.0,0.0,0.0,0.0,0
-35.0,-19.0,-28.0,-24.0,-8.0,-4.0,-6.0,-3.0,0.0,0.0,0.0,0.0,0.0,0.0,0.0,0.0,0
-36.0,-12.0,-31.0,-15.0,-6.0,-5.0,-14.0,-1.0,0.0,0.0,0.0,0.0,0.0,0.0,0.0,0.0,0
-12.0,4.0,-10.0,5.0,1.0,-5.0,-11.0,5.0,0.0,0.0,0.0,0.0,0.0,0.0,0.0,0.0,0
31.0,9.0,6.0,15.0,7.0,8.0,-14.0,3.0,0.0,0.0,0.0,0.0,0.0,0.0,0.0,0.0,0
45.0,-6.0,5.0,4.0,-3.0,-4.0,-20.0,7.0,0.0,0.0,0.0,0.0,0.0,0.0,0.0,0.0,0
16.0,-17.0,-5.0,3.0,-5.0,-9.0,-23.0,4.0,0.0,0.0,0.0,0.0,0.0,0.0,0.0,0.0,0
46.0,20.0,16.0,19.0,7.0,13.0,-1.0,0.0,0.0,0.0,0.0,0.0,0.0,0.0,0.0,0.0,0
57.0,24.0,23.0,28.0,9.0,16.0,4.0,5.0,0.0,0.0,0.0,0.0,0.0,0.0,0.0,0.0,0
-17.0,-30.0,-29.0,-17.0,-12.0,-8.0,-10.0,4.0,0.0,0.0,0.0,0.0,0.0,0.0,0.0,0.0,0
-86.0,-41.0,-40.0,-37.0,-11.0,-10.0,4.0,-3.0,0.0,0.0,0.0,0.0,0.0,0.0,0.0,0.0,0
-107.0,-20.0,-3.0,-19.0,-3.0,-3.0,9.0,-6.0,0.0,0.0,0.0,0.0,0.0,0.0,0.0,0.0,0
-68.0,-4.0,24.0,-3.0,1.0,4.0,19.0,-8.0,0.0,0.0,0.0,0.0,0.0,0.0,0.0,0.0,0
-15.0,10.0,49.0,9.0,-7.0,0.0,20.0,-8.0,0.0,0.0,0.0,0.0,0.0,0.0,0.0,0.0,0
36.0,16.0,55.0,16.0,-9.0,-10.0,6.0,-12.0,0.0,0.0,0.0,0.0,0.0,0.0,0.0,0.0,0
73.0,20.0,27.0,24.0,-4.0,-8.0,3.0,-13.0,0.0,0.0,0.0,0.0,0.0,0.0,0.0,0.0,0
65.0,15.0,-21.0,3.0,-5.0,-4.0,-2.0,-8.0,0.0,0.0,0.0,0.0,0.0,0.0,0.0,0.0,0
21.0,-1.0,-55.0,-27.0,-4.0,-4.0,-2.0,-5.0,0.0,0.0,0.0,0.0,0.0,0.0,0.0,0.0,0
-2.0,-2.0,-33.0,-22.0,-7.0,-4.0,-3.0,7.0,0.0,0.0,0.0,0.0,0.0,0.0,0.0,0.0,0
-23.0,5.0,-8.0,-12.0,-8.0,1.0,-4.0,6.0,0.0,0.0,0.0,0.0,0.0,0.0,0.0,0.0,0
-74.0,-2.0,-16.0,-26.0,-7.0,0.0,3.0,-2.0,0.0,0.0,0.0,0.0,0.0,0.0,0.0,0.0,0
-81.0,-12.0,-27.0,-35.0,0.0,-11.0,-10.0,-14.0,0.0,0.0,0.0,0.0,0.0,0.0,0.0,0.0,0
-21.0,-27.0,-30.0,-23.0,4.0,-10.0,-22.0,-5.0,0.0,0.0,0.0,0.0,0.0,0.0,0.0,0.0,0
57.0,-6.0,-9.0,9.0,8.0,-1.0,-10.0,7.0,0.0,0.0,0.0,0.0,0.0,0.0,0.0,0.0,0
43.0,6.0,15.0,19.0,2.0,-2.0,-10.0,3.0,0.0,0.0,0.0,0.0,0.0,0.0,0.0,0.0,0
18.0,-7.0,20.0,28.0,-5.0,-1.0,-21.0,4.0,0.0,0.0,0.0,0.0,0.0,0.0,0.0,0.0,0
22.0,-25.0,37.0,32.0,1.0,-2.0,-22.0,2.0,0.0,0.0,0.0,0.0,0.0,0.0,0.0,0.0,0
14.0,-24.0,29.0,29.0,1.0,-7.0,-7.0,-3.0,0.0,0.0,0.0,0.0,0.0,0.0,0.0,0.0,0
31.0,-15.0,-11.0,4.0,-10.0,-4.0,1.0,6.0,0.0,0.0,0.0,0.0,0.0,0.0,0.0,0.0,0
21.0,-19.0,-31.0,-14.0,-8.0,5.0,7.0,5.0,0.0,0.0,0.0,0.0,0.0,0.0,0.0,0.0,0
-16.0,-4.0,-26.0,-27.0,-6.0,8.0,3.0,1.0,0.0,0.0,0.0,0.0,0.0,0.0,0.0,0.0,0
-36.0,22.0,-11.0,-11.0,3.0,8.0,11.0,-4.0,0.0,0.0,0.0,0.0,0.0,0.0,0.0,0.0,0
-48.0,42.0,7.0,-5.0,11.0,6.0,23.0,-5.0,0.0,0.0,0.0,0.0,0.0,0.0,0.0,0.0,0
-46.0,37.0,14.0,-3.0,9.0,-8.0,15.0,-14.0,0.0,0.0,0.0,0.0,0.0,0.0,0.0,0.0,0
-28.0,20.0,13.0,-4.0,-3.0,-8.0,7.0,-12.0,0.0,0.0,0.0,0.0,0.0,0.0,0.0,0.0,0
-2.0,4.0,12.0,0.0,-12.0,-2.0,-3.0,-9.0,0.0,0.0,0.0,0.0,0.0,0.0,0.0,0.0,0
-4.0,-12.0,4.0,-3.0,-11.0,0.0,0.0,-14.0,0.0,0.0,0.0,0.0,0.0,0.0,0.0,0.0,0
0.0,-20.0,-3.0,-8.0,-7.0,-6.0,2.0,-8.0,0.0,0.0,0.0,0.0,0.0,0.0,0.0,0.0,0
10.0,-20.0,-20.0,-7.0,-5.0,-12.0,-7.0,0.0,0.0,0.0,0.0,0.0,0.0,0.0,0.0,0.0,0
-3.0,-21.0,-21.0,-14.0,-2.0,-10.0,-9.0,-9.0,0.0,0.0,0.0,0.0,0.0,0.0,0.0,0.0,0
22.0,-4.0,-6.0,-1.0,-3.0,-3.0,-3.0,0.0,0.0,0.0,0.0,0.0,0.0,0.0,0.0,0.0,0
48.0,15.0,12.0,20.0,2.0,5.0,-4.0,11.0,0.0,0.0,0.0,0.0,0.0,0.0,0.0,0.0,0
29.0,20.0,16.0,14.0,-8.0,3.0,-9.0,12.0,0.0,0.0,0.0,0.0,0.0,0.0,0.0,0.0,0
15.0,13.0,17.0,6.0,3.0,-2.0,-8.0,-3.0,0.0,0.0,0.0,0.0,0.0,0.0,0.0,0.0,0
-4.0,-3.0,10.0,14.0,9.0,4.0,1.0,-4.0,0.0,0.0,0.0,0.0,0.0,0.0,0.0,0.0,0
-17.0,-20.0,-19.0,-2.0,-4.0,-11.0,-21.0,1.0,0.0,0.0,0.0,0.0,0.0,0.0,0.0,0.0,0
-36.0,-50.0,-57.0,-19.0,-19.0,-16.0,-30.0,-3.0,0.0,0.0,0.0,0.0,0.0,0.0,0.0,0.0,0
-68.0,-69.0,-65.0,-20.0,-5.0,-8.0,-22.0,-1.0,0.0,0.0,0.0,0.0,0.0,0.0,0.0,0.0,0
-94.0,-41.0,-38.0,-18.0,3.0,-2.0,-15.0,4.0,0.0,0.0,0.0,0.0,0.0,0.0,0.0,0.0,0
-49.0,11.0,7.0,-6.0,0.0,3.0,-3.0,2.0,0.0,0.0,0.0,0.0,0.0,0.0,0.0,0.0,0
67.0,39.0,17.0,1.0,-8.0,5.0,7.0,7.0,0.0,0.0,0.0,0.0,0.0,0.0,0.0,0.0,0
89.0,21.0,10.0,-2.0,-9.0,-4.0,10.0,6.0,0.0,0.0,0.0,0.0,0.0,0.0,0.0,0.0,0
8.0,8.0,9.0,-17.0,-14.0,-17.0,6.0,-24.0,0.0,0.0,0.0,0.0,0.0,0.0,0.0,0.0,0
84.0,84.0,79.0,26.0,23.0,39.0,64.0,4.0,0.0,0.0,0.0,0.0,0.0,0.0,0.0,0.0,0
97.0,97.0,84.0,42.0,31.0,44.0,57.0,2.0,0.0,0.0,0.0,0.0,0.0,0.0,0.0,0.0,0
-35.0,-19.0,-13.0,-23.0,-17.0,-21.0,-23.0,-45.0,0.0,0.0,0.0,0.0,0.0,0.0,0.0,0.0,0
-98.0,-55.0,-61.0,-40.0,-30.0,-44.0,-34.0,-6.0,0.0,0.0,0.0,0.0,0.0,0.0,0.0,0.0,0
-97.0,-48.0,-33.0,-15.0,-9.0,-28.0,-21.0,6.0,0.0,0.0,0.0,0.0,0.0,0.0,0.0,0.0,0
-79.0,-50.0,-18.0,0.0,-7.0,-24.0,-22.0,7.0,0.0,0.0,0.0,0.0,0.0,0.0,0.0,0.0,0
-31.0,-46.0,-22.0,0.0,-9.0,-3.0,-8.0,6.0,0.0,0.0,0.0,0.0,0.0,0.0,0.0,0.0,0
53.0,-19.0,-8.0,3.0,-3.0,9.0,9.0,1.0,0.0,0.0,0.0,0.0,0.0,0.0,0.0,0.0,0
64.0,14.0,2.0,17.0,6.0,15.0,9.0,-3.0,0.0,0.0,0.0,0.0,0.0,0.0,0.0,0.0,0
13.0,20.0,0.0,7.0,8.0,2.0,-10.0,-7.0,0.0,0.0,0.0,0.0,0.0,0.0,0.0,0.0,0
-31.0,6.0,9.0,11.0,9.0,0.0,-11.0,3.0,0.0,0.0,0.0,0.0,0.0,0.0,0.0,0.0,0
-4.0,10.0,11.0,11.0,1.0,0.0,0.0,9.0,0.0,0.0,0.0,0.0,0.0,0.0,0.0,0.0,0
13.0,4.0,2.0,0.0,0.0,5.0,-12.0,7.0,0.0,0.0,0.0,0.0,0.0,0.0,0.0,0.0,0
19.0,-7.0,-4.0,-3.0,4.0,2.0,-16.0,-1.0,0.0,0.0,0.0,0.0,0.0,0.0,0.0,0.0,0
36.0,10.0,-2.0,-15.0,-6.0,-8.0,-16.0,-3.0,0.0,0.0,0.0,0.0,0.0,0.0,0.0,0.0,0
36.0,13.0,9.0,-4.0,-10.0,-18.0,-23.0,7.0,0.0,0.0,0.0,0.0,0.0,0.0,0.0,0.0,0
-4.0,-11.0,-13.0,-8.0,-20.0,-18.0,-12.0,-2.0,0.0,0.0,0.0,0.0,0.0,0.0,0.0,0.0,0
-19.0,-7.0,-33.0,-15.0,-13.0,6.0,5.0,-3.0,0.0,0.0,0.0,0.0,0.0,0.0,0.0,0.0,0
17.0,34.0,2.0,9.0,7.0,27.0,33.0,-8.0,0.0,0.0,0.0,0.0,0.0,0.0,0.0,0.0,0
-23.0,-3.0,-23.0,-18.0,4.0,0.0,18.0,-10.0,0.0,0.0,0.0,0.0,0.0,0.0,0.0,0.0,0
-56.0,-24.0,-18.0,-18.0,3.0,-13.0,8.0,-11.0,0.0,0.0,0.0,0.0,0.0,0.0,0.0,0.0,0
-62.0,-16.0,13.0,-2.0,0.0,-10.0,3.0,-9.0,0.0,0.0,0.0,0.0,0.0,0.0,0.0,0.0,0
-51.0,-22.0,41.0,9.0,4.0,-4.0,4.0,-5.0,0.0,0.0,0.0,0.0,0.0,0.0,0.0,0.0,0
-23.0,-8.0,48.0,18.0,-2.0,-4.0,5.0,5.0,0.0,0.0,0.0,0.0,0.0,0.0,0.0,0.0,0
20.0,1.0,14.0,10.0,-12.0,-4.0,-1.0,-3.0,0.0,0.0,0.0,0.0,0.0,0.0,0.0,0.0,0
38.0,-7.0,-30.0,-17.0,-14.0,-5.0,-11.0,-13.0,0.0,0.0,0.0,0.0,0.0,0.0,0.0,0.0,0
37.0,-18.0,-45.0,-25.0,-10.0,-2.0,-10.0,2.0,0.0,0.0,0.0,0.0,0.0,0.0,0.0,0.0,0
30.0,4.0,-25.0,-13.0,-4.0,-9.0,4.0,-3.0,0.0,0.0,0.0,0.0,0.0,0.0,0.0,0.0,0
17.0,24.0,1.0,-3.0,0.0,8.0,3.0,-13.0,0.0,0.0,0.0,0.0,0.0,0.0,0.0,0.0,0
10.0,10.0,4.0,-7.0,-3.0,3.0,-14.0,-11.0,0.0,0.0,0.0,0.0,0.0,0.0,0.0,0.0,0
5.0,5.0,4.0,0.0,-1.0,-10.0,-13.0,8.0,0.0,0.0,0.0,0.0,0.0,0.0,0.0,0.0,0
-18.0,-2.0,6.0,6.0,2.0,-7.0,-11.0,13.0,0.0,0.0,0.0,0.0,0.0,0.0,0.0,0.0,0
-29.0,5.0,17.0,16.0,4.0,-7.0,-20.0,6.0,0.0,0.0,0.0,0.0,0.0,0.0,0.0,0.0,0
-22.0,1.0,8.0,14.0,3.0,-5.0,-23.0,7.0,0.0,0.0,0.0,0.0,0.0,0.0,0.0,0.0,0
7.0,-20.0,-47.0,-24.0,-12.0,-1.0,-21.0,-4.0,0.0,0.0,0.0,0.0,0.0,0.0,0.0,0.0,0
20.0,-29.0,-59.0,-38.0,-14.0,2.0,-22.0,-12.0,0.0,0.0,0.0,0.0,0.0,0.0,0.0,0.0,0
-3.0,-18.0,-11.0,0.0,-2.0,1.0,-3.0,-9.0,0.0,0.0,0.0,0.0,0.0,0.0,0.0,0.0,0
-22.0,-15.0,-2.0,12.0,12.0,8.0,15.0,8.0,0.0,0.0,0.0,0.0,0.0,0.0,0.0,0.0,0
-16.0,-4.0,20.0,19.0,7.0,5.0,23.0,13.0,0.0,0.0,0.0,0.0,0.0,0.0,0.0,0.0,0
-1.0,7.0,36.0,17.0,7.0,5.0,26.0,-5.0,0.0,0.0,0.0,0.0,0.0,0.0,0.0,0.0,0
-5.0,9.0,16.0,-5.0,-5.0,-5.0,19.0,-16.0,0.0,0.0,0.0,0.0,0.0,0.0,0.0,0.0,0
-1.0,19.0,6.0,-7.0,-15.0,-6.0,11.0,-11.0,0.0,0.0,0.0,0.0,0.0,0.0,0.0,0.0,0
-4.0,27.0,21.0,-4.0,-4.0,-12.0,0.0,-15.0,0.0,0.0,0.0,0.0,0.0,0.0,0.0,0.0,0
2.0,31.0,30.0,7.0,-1.0,-5.0,-4.0,-14.0,0.0,0.0,0.0,0.0,0.0,0.0,0.0,0.0,0
4.0,12.0,18.0,4.0,-4.0,-3.0,-9.0,-12.0,0.0,0.0,0.0,0.0,0.0,0.0,0.0,0.0,0
18.0,-5.0,-15.0,-11.0,-6.0,-8.0,-12.0,-1.0,0.0,0.0,0.0,0.0,0.0,0.0,0.0,0.0,0
14.0,-5.0,-33.0,-22.0,-7.0,-6.0,3.0,-2.0,0.0,0.0,0.0,0.0,0.0,0.0,0.0,0.0,0
-17.0,-25.0,-29.0,-21.0,-6.0,-6.0,4.0,-2.0,0.0,0.0,0.0,0.0,0.0,0.0,0.0,0.0,0
-37.0,-44.0,-21.0,-14.0,-4.0,0.0,-5.0,-1.0,0.0,0.0,0.0,0.0,0.0,0.0,0.0,0.0,0
-35.0,-55.0,-31.0,-22.0,-2.0,8.0,-15.0,3.0,0.0,0.0,0.0,0.0,0.0,0.0,0.0,0.0,0
-40.0,-38.0,-29.0,-13.0,-3.0,2.0,-15.0,1.0,0.0,0.0,0.0,0.0,0.0,0.0,0.0,0.0,0
-25.0,-5.0,-17.0,2.0,-7.0,-6.0,-16.0,3.0,0.0,0.0,0.0,0.0,0.0,0.0,0.0,0.0,0
24.0,18.0,-10.0,8.0,-5.0,-11.0,-15.0,5.0,0.0,0.0,0.0,0.0,0.0,0.0,0.0,0.0,0
74.0,34.0,-5.0,13.0,3.0,-8.0,-20.0,9.0,0.0,0.0,0.0,0.0,0.0,0.0,0.0,0.0,0
35.0,19.0,7.0,22.0,3.0,3.0,-12.0,6.0,0.0,0.0,0.0,0.0,0.0,0.0,0.0,0.0,0
4.0,14.0,14.0,14.0,-7.0,-2.0,-14.0,-1.0,0.0,0.0,0.0,0.0,0.0,0.0,0.0,0.0,0
1.0,-2.0,7.0,2.0,-7.0,1.0,-1.0,-6.0,0.0,0.0,0.0,0.0,0.0,0.0,0.0,0.0,0
4.0,-8.0,-3.0,-6.0,-6.0,-4.0,13.0,-9.0,0.0,0.0,0.0,0.0,0.0,0.0,0.0,0.0,0
0.0,8.0,3.0,-4.0,5.0,-5.0,17.0,-6.0,0.0,0.0,0.0,0.0,0.0,0.0,0.0,0.0,0
-29.0,2.0,17.0,-1.0,7.0,2.0,22.0,-5.0,0.0,0.0,0.0,0.0,0.0,0.0,0.0,0.0,0
-51.0,-7.0,22.0,2.0,3.0,4.0,13.0,-10.0,0.0,0.0,0.0,0.0,0.0,0.0,0.0,0.0,0
-71.0,-6.0,9.0,-6.0,-2.0,0.0,8.0,-16.0,0.0,0.0,0.0,0.0,0.0,0.0,0.0,0.0,0
-18.0,2.0,-5.0,-16.0,-2.0,1.0,7.0,-11.0,0.0,0.0,0.0,0.0,0.0,0.0,0.0,0.0,0
68.0,29.0,6.0,-5.0,-6.0,2.0,-1.0,-3.0,0.0,0.0,0.0,0.0,0.0,0.0,0.0,0.0,0
38.0,25.0,15.0,9.0,0.0,2.0,-4.0,8.0,0.0,0.0,0.0,0.0,0.0,0.0,0.0,0.0,0
4.0,-13.0,0.0,-1.0,-6.0,-14.0,-7.0,-2.0,0.0,0.0,0.0,0.0,0.0,0.0,0.0,0.0,2
-4.0,-15.0,-3.0,-14.0,-13.0,-21.0,-8.0,-18.0,0.0,0.0,0.0,0.0,0.0,0.0,0.0,0.0,2
-27.0,-35.0,-21.0,-17.0,-9.0,-6.0,-3.0,-15.0,0.0,0.0,0.0,0.0,0.0,0.0,0.0,0.0,2
-14.0,-46.0,-35.0,-10.0,-6.0,1.0,-5.0,12.0,0.0,0.0,0.0,0.0,0.0,0.0,0.0,0.0,2
4.0,-32.0,-31.0,-4.0,0.0,-4.0,-16.0,9.0,0.0,0.0,0.0,0.0,0.0,0.0,0.0,0.0,2
4.0,-14.0,-9.0,1.0,-3.0,-8.0,-17.0,9.0,0.0,0.0,0.0,0.0,0.0,0.0,0.0,0.0,2
-9.0,4.0,3.0,3.0,-8.0,-6.0,-10.0,6.0,0.0,0.0,0.0,0.0,0.0,0.0,0.0,0.0,2
-4.0,16.0,-7.0,-9.0,-6.0,-5.0,-19.0,5.0,0.0,0.0,0.0,0.0,0.0,0.0,0.0,0.0,2
2.0,15.0,-19.0,-11.0,-7.0,-4.0,-22.0,3.0,0.0,0.0,0.0,0.0,0.0,0.0,0.0,0.0,2
-17.0,7.0,-30.0,-4.0,-4.0,2.0,-13.0,-7.0,0.0,0.0,0.0,0.0,0.0,0.0,0.0,0.0,2
-7.0,-5.0,-17.0,-1.0,4.0,2.0,-10.0,-5.0,0.0,0.0,0.0,0.0,0.0,0.0,0.0,0.0,2
19.0,19.0,10.0,5.0,11.0,0.0,-8.0,-6.0,0.0,0.0,0.0,0.0,0.0,0.0,0.0,0.0,2
40.0,24.0,18.0,7.0,7.0,-6.0,-2.0,-3.0,0.0,0.0,0.0,0.0,0.0,0.0,0.0,0.0,2
80.0,30.0,44.0,23.0,18.0,20.0,33.0,0.0,0.0,0.0,0.0,0.0,0.0,0.0,0.0,0.0,2
33.0,16.0,57.0,25.0,13.0,24.0,49.0,14.0,0.0,0.0,0.0,0.0,0.0,0.0,0.0,0.0,2
-63.0,-15.0,39.0,-3.0,-7.0,-8.0,11.0,-12.0,0.0,0.0,0.0,0.0,0.0,0.0,0.0,0.0,2
-84.0,-15.0,48.0,5.0,-19.0,-16.0,-7.0,-23.0,0.0,0.0,0.0,0.0,0.0,0.0,0.0,0.0,2
-78.0,-26.0,-6.0,-21.0,-23.0,-21.0,-7.0,-19.0,0.0,0.0,0.0,0.0,0.0,0.0,0.0,0.0,2
-74.0,-51.0,-100.0,-58.0,-30.0,-21.0,-10.0,-11.0,0.0,0.0,0.0,0.0,0.0,0.0,0.0,0.0,2
-7.0,-21.0,-91.0,-50.0,-21.0,-14.0,-6.0,-10.0,0.0,0.0,0.0,0.0,0.0,0.0,0.0,0.0,2
50.0,6.0,-45.0,-17.0,-2.0,-1.0,2.0,7.0,0.0,0.0,0.0,0.0,0.0,0.0,0.0,0.0,2
27.0,-3.0,-8.0,12.0,11.0,10.0,13.0,11.0,0.0,0.0,0.0,0.0,0.0,0.0,0.0,0.0,2
23.0,2.0,22.0,28.0,12.0,13.0,11.0,8.0,0.0,0.0,0.0,0.0,0.0,0.0,0.0,0.0,2
24.0,0.0,36.0,25.0,11.0,1.0,-5.0,0.0,0.0,0.0,0.0,0.0,0.0,0.0,0.0,0.0,2
0.0,-4.0,31.0,16.0,2.0,-10.0,-18.0,-8.0,0.0,0.0,0.0,0.0,0.0,0.0,0.0,0.0,2
8.0,25.0,47.0,11.0,1.0,-4.0,-13.0,0.0,0.0,0.0,0.0,0.0,0.0,0.0,0.0,0.0,2
46.0,34.0,16.0,-2.0,-2.0,-12.0,-16.0,-5.0,0.0,0.0,0.0,0.0,0.0,0.0,0.0,0.0,2
44.0,25.0,-21.0,-12.0,-10.0,-12.0,-22.0,-5.0,0.0,0.0,0.0,0.0,0.0,0.0,0.0,0.0,2
4.0,16.0,-24.0,-3.0,-6.0,-6.0,-21.0,5.0,0.0,0.0,0.0,0.0,0.0,0.0,0.0,0.0,2
-7.0,11.0,-11.0,5.0,2.0,0.0,-14.0,9.0,0.0,0.0,0.0,0.0,0.0,0.0,0.0,0.0,2
-16.0,-6.0,-16.0,0.0,4.0,7.0,-8.0,12.0,0.0,0.0,0.0,0.0,0.0,0.0,0.0,0.0,2
-57.0,-45.0,-24.0,-16.0,2.0,7.0,2.0,6.0,0.0,0.0,0.0,0.0,0.0,0.0,0.0,0.0,2
-71.0,-75.0,-28.0,-21.0,5.0,-3.0,10.0,-12.0,0.0,0.0,0.0,0.0,0.0,0.0,0.0,0.0,2
-37.0,-71.0,6.0,0.0,3.0,3.0,14.0,-15.0,0.0,0.0,0.0,0.0,0.0,0.0,0.0,0.0,2
-27.0,-28.0,38.0,10.0,2.0,9.0,24.0,1.0,0.0,0.0,0.0,0.0,0.0,0.0,0.0,0.0,2
1.0,5.0,14.0,-12.0,-6.0,1.0,21.0,2.0,0.0,0.0,0.0,0.0,0.0,0.0,0.0,0.0,2
37.0,27.0,-16.0,-28.0,-17.0,-9.0,12.0,-9.0,0.0,0.0,0.0,0.0,0.0,0.0,0.0,0.0,2
50.0,60.0,16.0,7.0,2.0,7.0,2.0,-36.0,0.0,0.0,0.0,0.0,0.0,0.0,0.0,0.0,2
-15.0,40.0,23.0,26.0,14.0,0.0,-3.0,-24.0,0.0,0.0,0.0,0.0,0.0,0.0,0.0,0.0,2
-46.0,25.0,15.0,23.0,-4.0,-17.0,-9.0,11.0,0.0,0.0,0.0,0.0,0.0,0.0,0.0,0.0,2
1.0,27.0,12.0,11.0,-16.0,-21.0,-16.0,12.0,0.0,0.0,0.0,0.0,0.0,0.0,0.0,0.0,2
6.0,14.0,-14.0,-23.0,-26.0,-9.0,-7.0,3.0,0.0,0.0,0.0,0.0,0.0,0.0,0.0,0.0,2
4.0,4.0,-22.0,-39.0,-25.0,-1.0,2.0,6.0,0.0,0.0,0.0,0.0,0.0,0.0,0.0,0.0,2
60.0,-7.0,-35.0,-35.0,-18.0,-3.0,-9.0,1.0,0.0,0.0,0.0,0.0,0.0,0.0,0.0,0.0,2
74.0,-28.0,-54.0,-28.0,-15.0,-16.0,-26.0,-9.0,0.0,0.0,0.0,0.0,0.0,0.0,0.0,0.0,2
2.0,-37.0,-22.0,-4.0,11.0,-4.0,-12.0,-11.0,0.0,0.0,0.0,0.0,0.0,0.0,0.0,0.0,2
-26.0,-44.0,5.0,10.0,24.0,13.0,5.0,0.0,0.0,0.0,0.0,0.0,0.0,0.0,0.0,0.0,2
-5.0,-56.0,-8.0,15.0,18.0,9.0,-4.0,8.0,0.0,0.0,0.0,0.0,0.0,0.0,0.0,0.0,2
-13.0,-25.0,19.0,30.0,16.0,3.0,-14.0,10.0,0.0,0.0,0.0,0.0,0.0,0.0,0.0,0.0,2
-35.0,6.0,47.0,44.0,10.0,2.0,-18.0,8.0,0.0,0.0,0.0,0.0,0.0,0.0,0.0,0.0,2
-41.0,16.0,19.0,15.0,-2.0,-3.0,-20.0,0.0,0.0,0.0,0.0,0.0,0.0,0.0,0.0,0.0,2
-41.0,16.0,-18.0,-22.0,-8.0,-3.0,-7.0,-10.0,0.0,0.0,0.0,0.0,0.0,0.0,0.0,0.0,2
19.0,40.0,-5.0,-20.0,-9.0,-3.0,8.0,-10.0,0.0,0.0,0.0,0.0,0.0,0.0,0.0,0.0,2
7.0,47.0,27.0,-2.0,0.0,1.0,22.0,-4.0,0.0,0.0,0.0,0.0,0.0,0.0,0.0,0.0,2
-17.0,29.0,24.0,5.0,-2.0,3.0,21.0,-9.0,0.0,0.0,0.0,0.0,0.0,0.0,0.0,0.0,2
-2.0,-27.0,-51.0,-26.0,-13.0,-5.0,10.0,-13.0,0.0,0.0,0.0,0.0,0.0,0.0,0.0,0.0,2
21.0,-52.0,-70.0,-29.0,-12.0,-9.0,9.0,-8.0,0.0,0.0,0.0,0.0,0.0,0.0,0.0,0.0,2
6.0,-29.0,-38.0,-9.0,-7.0,-9.0,9.0,1.0,0.0,0.0,0.0,0.0,0.0,0.0,0.0,0.0,2
-5.0,-8.0,3.0,0.0,-2.0,-8.0,6.0,3.0,0.0,0.0,0.0,0.0,0.0,0.0,0.0,0.0,2
5.0,1.0,32.0,12.0,2.0,4.0,3.0,-2.0,0.0,0.0,0.0,0.0,0.0,0.0,0.0,0.0,2
6.0,12.0,46.0,18.0,7.0,1.0,-4.0,-5.0,0.0,0.0,0.0,0.0,0.0,0.0,0.0,0.0,2
-6.0,21.0,61.0,24.0,4.0,-1.0,-13.0,-11.0,0.0,0.0,0.0,0.0,0.0,0.0,0.0,0.0,2
-4.0,43.0,65.0,38.0,13.0,10.0,5.0,-20.0,0.0,0.0,0.0,0.0,0.0,0.0,0.0,0.0,2
2.0,36.0,36.0,21.0,6.0,4.0,8.0,-13.0,0.0,0.0,0.0,0.0,0.0,0.0,0.0,0.0,2
-17.0,-4.0,-13.0,-29.0,-17.0,-21.0,-25.0,6.0,0.0,0.0,0.0,0.0,0.0,0.0,0.0,0.0,2
1.0,-21.0,-46.0,-44.0,-19.0,-17.0,-28.0,8.0,0.0,0.0,0.0,0.0,0.0,0.0,0.0,0.0,2
9.0,-54.0,-82.0,-57.0,-28.0,-15.0,-18.0,4.0,0.0,0.0,0.0,0.0,0.0,0.0,0.0,0.0,2
3.0,-71.0,-113.0,-66.0,-29.0,-12.0,-26.0,8.0,0.0,0.0,0.0,0.0,0.0,0.0,0.0,0.0,2
-11.0,-43.0,-72.0,-38.0,-10.0,-8.0,-23.0,5.0,0.0,0.0,0.0,0.0,0.0,0.0,0.0,0.0,2
-9.0,-12.0,-34.0,-6.0,8.0,5.0,-3.0,1.0,0.0,0.0,0.0,0.0,0.0,0.0,0.0,0.0,2
32.0,5.0,-13.0,24.0,10.0,5.0,-7.0,2.0,0.0,0.0,0.0,0.0,0.0,0.0,0.0,0.0,2
39.0,23.0,26.0,36.0,16.0,13.0,-5.0,-8.0,0.0,0.0,0.0,0.0,0.0,0.0,0.0,0.0,2
-41.0,31.0,63.0,55.0,17.0,2.0,7.0,-8.0,0.0,0.0,0.0,0.0,0.0,0.0,0.0,0.0,2
-77.0,19.0,66.0,41.0,7.0,4.0,19.0,-6.0,0.0,0.0,0.0,0.0,0.0,0.0,0.0,0.0,2
-10.0,22.0,52.0,18.0,7.0,11.0,32.0,10.0,0.0,0.0,0.0,0.0,0.0,0.0,0.0,0.0,2
34.0,55.0,60.0,16.0,13.0,27.0,36.0,-4.0,0.0,0.0,0.0,0.0,0.0,0.0,0.0,0.0,2
22.0,27.0,33.0,-7.0,4.0,4.0,19.0,-19.0,0.0,0.0,0.0,0.0,0.0,0.0,0.0,0.0,2
3.0,-20.0,0.0,-31.0,-23.0,-20.0,-2.0,-2.0,0.0,0.0,0.0,0.0,0.0,0.0,0.0,0.0,2
-8.0,-34.0,-1.0,-27.0,-13.0,-23.0,-13.0,5.0,0.0,0.0,0.0,0.0,0.0,0.0,0.0,0.0,2
-1.0,-20.0,-2.0,-18.0,-15.0,-18.0,-13.0,-5.0,0.0,0.0,0.0,0.0,0.0,0.0,0.0,0.0,2
-1.0,-23.0,-46.0,-23.0,-13.0,-9.0,-19.0,-16.0,0.0,0.0,0.0,0.0,0.0,0.0,0.0,0.0,2
-33.0,-37.0,-71.0,-24.0,-7.0,-8.0,-17.0,-16.0,0.0,0.0,0.0,0.0,0.0,0.0,0.0,0.0,2
-64.0,-46.0,-96.0,-24.0,-8.0,-12.0,-6.0,-9.0,0.0,0.0,0.0,0.0,0.0,0.0,0.0,0.0,2
15.0,2.0,-49.0,-4.0,7.0,11.0,6.0,7.0,0.0,0.0,0.0,0.0,0.0,0.0,0.0,0.0,2
74.0,56.0,10.0,12.0,4.0,-3.0,-7.0,1.0,0.0,0.0,0.0,0.0,0.0,0.0,0.0,0.0,2
22.0,60.0,55.0,29.0,-3.0,-5.0,-14.0,-4.0,0.0,0.0,0.0,0.0,0.0,0.0,0.0,0.0,2
-24.0,21.0,67.0,30.0,2.0,0.0,-6.0,4.0,0.0,0.0,0.0,0.0,0.0,0.0,0.0,0.0,2
-20.0,-37.0,34.0,19.0,6.0,0.0,-12.0,5.0,0.0,0.0,0.0,0.0,0.0,0.0,0.0,0.0,2
0.0,-57.0,-16.0,-1.0,-5.0,2.0,-24.0,10.0,0.0,0.0,0.0,0.0,0.0,0.0,0.0,0.0,2
43.0,-33.0,-35.0,-12.0,-17.0,-3.0,-21.0,-5.0,0.0,0.0,0.0,0.0,0.0,0.0,0.0,0.0,2
50.0,-20.0,-15.0,5.0,-9.0,7.0,3.0,14.0,0.0,0.0,0.0,0.0,0.0,0.0,0.0,0.0,2
3.0,-21.0,-15.0,-10.0,-3.0,-6.0,8.0,18.0,0.0,0.0,0.0,0.0,0.0,0.0,0.0,0.0,2
-30.0,-5.0,-3.0,-25.0,1.0,-11.0,5.0,-13.0,0.0,0.0,0.0,0.0,0.0,0.0,0.0,0.0,2
-44.0,22.0,6.0,-39.0,2.0,-4.0,3.0,-20.0,0.0,0.0,0.0,0.0,0.0,0.0,0.0,0.0,2
-51.0,27.0,-15.0,-48.0,-3.0,2.0,8.0,-17.0,0.0,0.0,0.0,0.0,0.0,0.0,0.0,0.0,2
-32.0,30.0,-28.0,-33.0,-11.0,5.0,10.0,-19.0,0.0,0.0,0.0,0.0,0.0,0.0,0.0,0.0,2
-10.0,25.0,-37.0,-13.0,-4.0,1.0,5.0,-11.0,0.0,0.0,0.0,0.0,0.0,0.0,0.0,0.0,2
29.0,13.0,-20.0,11.0,7.0,3.0,3.0,3.0,0.0,0.0,0.0,0.0,0.0,0.0,0.0,0.0,2
58.0,3.0,27.0,36.0,17.0,2.0,7.0,10.0,0.0,0.0,0.0,0.0,0.0,0.0,0.0,0.0,2
-6.0,-24.0,71.0,58.0,8.0,-5.0,6.0,-1.0,0.0,0.0,0.0,0.0,0.0,0.0,0.0,0.0,2
-72.0,-15.0,75.0,49.0,-2.0,-6.0,-1.0,-5.0,0.0,0.0,0.0,0.0,0.0,0.0,0.0,0.0,2
-86.0,8.0,56.0,23.0,-15.0,-10.0,-5.0,-7.0,0.0,0.0,0.0,0.0,0.0,0.0,0.0,0.0,2
-76.0,10.0,33.0,3.0,-11.0,-11.0,-14.0,-37.0,0.0,0.0,0.0,0.0,0.0,0.0,0.0,0.0,2
121.0,19.0,-30.0,-14.0,10.0,10.0,15.0,15.0,0.0,0.0,0.0,0.0,0.0,0.0,0.0,0.0,2
162.0,-23.0,-101.0,-33.0,-4.0,-2.0,-7.0,30.0,0.0,0.0,0.0,0.0,0.0,0.0,0.0,0.0,2
68.0,-41.0,-91.0,-32.0,6.0,-14.0,-24.0,4.0,0.0,0.0,0.0,0.0,0.0,0.0,0.0,0.0,2
2.0,-23.0,-48.0,-33.0,-4.0,-13.0,-18.0,5.0,0.0,0.0,0.0,0.0,0.0,0.0,0.0,0.0,2
-57.0,-24.0,-24.0,-23.0,-11.0,-10.0,-25.0,-3.0,0.0,0.0,0.0,0.0,0.0,0.0,0.0,0.0,2
-75.0,-17.0,19.0,12.0,-1.0,2.0,-23.0,3.0,0.0,0.0,0.0,0.0,0.0,0.0,0.0,0.0,2
-67.0,-4.0,66.0,41.0,1.0,11.0,-6.0,0.0,0.0,0.0,0.0,0.0,0.0,0.0,0.0,0.0,2
-37.0,2.0,34.0,17.0,-3.0,7.0,-8.0,2.0,0.0,0.0,0.0,0.0,0.0,0.0,0.0,0.0,2
10.0,1.0,-33.0,-30.0,-15.0,1.0,-5.0,-5.0,0.0,0.0,0.0,0.0,0.0,0.0,0.0,0.0,2
38.0,19.0,-61.0,-60.0,-20.0,-3.0,3.0,-11.0,0.0,0.0,0.0,0.0,0.0,0.0,0.0,0.0,2
15.0,28.0,-34.0,-43.0,-12.0,-9.0,15.0,-4.0,0.0,0.0,0.0,0.0,0.0,0.0,0.0,0.0,2
40.0,27.0,-2.0,-3.0,0.0,1.0,22.0,-12.0,0.0,0.0,0.0,0.0,0.0,0.0,0.0,0.0,2
44.0,23.0,36.0,21.0,11.0,-5.0,22.0,-9.0,0.0,0.0,0.0,0.0,0.0,0.0,0.0,0.0,2
12.0,16.0,60.0,32.0,12.0,-5.0,10.0,-12.0,0.0,0.0,0.0,0.0,0.0,0.0,0.0,0.0,2
-75.0,1.0,57.0,41.0,10.0,-8.0,9.0,-9.0,0.0,0.0,0.0,0.0,0.0,0.0,0.0,0.0,2
-181.0,-42.0,16.0,9.0,0.0,-5.0,1.0,-5.0,0.0,0.0,0.0,0.0,0.0,0.0,0.0,0.0,2
-158.0,-63.0,9.0,6.0,6.0,7.0,5.0,-5.0,0.0,0.0,0.0,0.0,0.0,0.0,0.0,0.0,2
33.0,-22.0,10.0,5.0,8.0,8.0,-6.0,-1.0,0.0,0.0,0.0,0.0,0.0,0.0,0.0,0.0,2
134.0,-2.0,-32.0,-8.0,-3.0,0.0,-11.0,-6.0,0.0,0.0,0.0,0.0,0.0,0.0,0.0,0.0,2
125.0,11.0,-53.0,-15.0,-5.0,-9.0,-9.0,-5.0,0.0,0.0,0.0,0.0,0.0,0.0,0.0,0.0,2
117.0,32.0,-43.0,-17.0,-10.0,-10.0,-8.0,6.0,0.0,0.0,0.0,0.0,0.0,0.0,0.0,0.0,2
95.0,33.0,-35.0,-20.0,-19.0,-11.0,-12.0,11.0,0.0,0.0,0.0,0.0,0.0,0.0,0.0,0.0,2
41.0,20.0,-20.0,-15.0,-16.0,-8.0,-7.0,13.0,0.0,0.0,0.0,0.0,0.0,0.0,0.0,0.0,2
-18.0,-13.0,-7.0,-8.0,-6.0,-4.0,-11.0,3.0,0.0,0.0,0.0,0.0,0.0,0.0,0.0,0.0,2
-100.0,-56.0,1.0,-5.0,-2.0,-6.0,-21.0,-6.0,0.0,0.0,0.0,0.0,0.0,0.0,0.0,0.0,2
-150.0,-82.0,-7.0,-6.0,3.0,-5.0,-24.0,-6.0,0.0,0.0,0.0,0.0,0.0,0.0,0.0,0.0,2
-124.0,-54.0,2.0,2.0,-2.0,-3.0,-17.0,-8.0,0.0,0.0,0.0,0.0,0.0,0.0,0.0,0.0,2
-54.0,6.0,10.0,12.0,-3.0,1.0,-10.0,-2.0,0.0,0.0,0.0,0.0,0.0,0.0,0.0,0.0,2
17.0,44.0,20.0,22.0,8.0,6.0,1.0,5.0,0.0,0.0,0.0,0.0,0.0,0.0,0.0,0.0,2
70.0,66.0,29.0,18.0,5.0,4.0,5.0,3.0,0.0,0.0,0.0,0.0,0.0,0.0,0.0,0.0,2
73.0,63.0,28.0,8.0,5.0,15.0,13.0,-13.0,0.0,0.0,0.0,0.0,0.0,0.0,0.0,0.0,2
53.0,42.0,7.0,-13.0,-9.0,8.0,20.0,-6.0,0.0,0.0,0.0,0.0,0.0,0.0,0.0,0.0,2
30.0,13.0,-16.0,-19.0,-10.0,1.0,20.0,-5.0,0.0,0.0,0.0,0.0,0.0,0.0,0.0,0.0,2
3.0,-20.0,-11.0,-5.0,-2.0,-11.0,11.0,-5.0,0.0,0.0,0.0,0.0,0.0,0.0,0.0,0.0,2
-35.0,-43.0,15.0,10.0,1.0,-15.0,5.0,-8.0,0.0,0.0,0.0,0.0,0.0,0.0,0.0,0.0,2
-59.0,-54.0,11.0,1.0,-5.0,-11.0,-9.0,-9.0,0.0,0.0,0.0,0.0,0.0,0.0,0.0,0.0,2
-58.0,-51.0,-23.0,-22.0,-9.0,-12.0,-8.0,-9.0,0.0,0.0,0.0,0.0,0.0,0.0,0.0,0.0,2
-41.0,-36.0,-28.0,-15.0,-8.0,-3.0,-4.0,0.0,0.0,0.0,0.0,0.0,0.0,0.0,0.0,0.0,2
-9.0,-1.0,-7.0,10.0,5.0,5.0,4.0,9.0,0.0,0.0,0.0,0.0,0.0,0.0,0.0,0.0,2
42.0,21.0,-12.0,7.0,6.0,6.0,5.0,9.0,0.0,0.0,0.0,0.0,0.0,0.0,0.0,0.0,2
67.0,34.0,-8.0,-6.0,-9.0,-5.0,-6.0,-6.0,0.0,0.0,0.0,0.0,0.0,0.0,0.0,0.0,2
43.0,19.0,-24.0,-19.0,-25.0,-16.0,-24.0,-19.0,0.0,0.0,0.0,0.0,0.0,0.0,0.0,0.0,2
23.0,6.0,-38.0,-31.0,-26.0,-14.0,-25.0,-9.0,0.0,0.0,0.0,0.0,0.0,0.0,0.0,0.0,2
-25.0,-2.0,-5.0,-16.0,-8.0,-9.0,-22.0,-2.0,0.0,0.0,0.0,0.0,0.0,0.0,0.0,0.0,2
-28.0,9.0,28.0,0.0,6.0,1.0,-19.0,6.0,0.0,0.0,0.0,0.0,0.0,0.0,0.0,0.0,2
-3.0,16.0,47.0,16.0,16.0,19.0,5.0,10.0,0.0,0.0,0.0,0.0,0.0,0.0,0.0,0.0,2
-54.0,-47.0,2.0,0.0,-4.0,3.0,-9.0,13.0,0.0,0.0,0.0,0.0,0.0,0.0,0.0,0.0,2
-41.0,-79.0,-20.0,-3.0,-9.0,-14.0,-22.0,12.0,0.0,0.0,0.0,0.0,0.0,0.0,0.0,0.0,2
39.0,-30.0,8.0,36.0,14.0,8.0,8.0,23.0,0.0,0.0,0.0,0.0,0.0,0.0,0.0,0.0,2
38.0,-10.0,-25.0,31.0,26.0,12.0,23.0,-13.0,0.0,0.0,0.0,0.0,0.0,0.0,0.0,0.0,2
-5.0,14.0,-74.0,-18.0,16.0,8.0,14.0,-31.0,0.0,0.0,0.0,0.0,0.0,0.0,0.0,0.0,2
-10.0,35.0,-50.0,-33.0,0.0,-4.0,11.0,-6.0,0.0,0.0,0.0,0.0,0.0,0.0,0.0,0.0,2
-29.0,45.0,22.0,-3.0,-17.0,-9.0,11.0,-10.0,0.0,0.0,0.0,0.0,0.0,0.0,0.0,0.0,2
-56.0,42.0,80.0,13.0,-13.0,-13.0,-4.0,-6.0,0.0,0.0,0.0,0.0,0.0,0.0,0.0,0.0,2
-29.0,33.0,88.0,7.0,-11.0,-12.0,-8.0,-12.0,0.0,0.0,0.0,0.0,0.0,0.0,0.0,0.0,2
54.0,12.0,44.0,-1.0,-14.0,-9.0,-2.0,-10.0,0.0,0.0,0.0,0.0,0.0,0.0,0.0,0.0,2
71.0,-3.0,4.0,-6.0,-9.0,-2.0,2.0,-15.0,0.0,0.0,0.0,0.0,0.0,0.0,0.0,0.0,2
29.0,-41.0,-33.0,-8.0,-7.0,4.0,4.0,-2.0,0.0,0.0,0.0,0.0,0.0,0.0,0.0,0.0,2
-20.0,-61.0,-57.0,-8.0,-7.0,11.0,9.0,22.0,0.0,0.0,0.0,0.0,0.0,0.0,0.0,0.0,2
-51.0,-41.0,-52.0,-10.0,-2.0,2.0,5.0,25.0,0.0,0.0,0.0,0.0,0.0,0.0,0.0,0.0,2
-53.0,-16.0,-24.0,-10.0,1.0,-10.0,-8.0,-2.0,0.0,0.0,0.0,0.0,0.0,0.0,0.0,0.0,2
-21.0,8.0,7.0,4.0,2.0,-14.0,-23.0,-14.0,0.0,0.0,0.0,0.0,0.0,0.0,0.0,0.0,2
15.0,46.0,40.0,24.0,8.0,-4.0,-19.0,-19.0,0.0,0.0,0.0,0.0,0.0,0.0,0.0,0.0,2
49.0,73.0,55.0,39.0,13.0,8.0,-2.0,-11.0,0.0,0.0,0.0,0.0,0.0,0.0,0.0,0.0,2
50.0,31.0,20.0,16.0,6.0,4.0,-22.0,1.0,0.0,0.0,0.0,0.0,0.0,0.0,0.0,0.0,2
0.0,-69.0,-70.0,-45.0,-22.0,-12.0,-39.0,-11.0,0.0,0.0,0.0,0.0,0.0,0.0,0.0,0.0,2
-22.0,-90.0,-91.0,-68.0,-26.0,-16.0,-20.0,-1.0,0.0,0.0,0.0,0.0,0.0,0.0,0.0,0.0,2
-22.0,-62.0,-58.0,-38.0,-19.0,-4.0,-3.0,13.0,0.0,0.0,0.0,0.0,0.0,0.0,0.0,0.0,2
-43.0,-40.0,-42.0,-20.0,-8.0,0.0,7.0,14.0,0.0,0.0,0.0,0.0,0.0,0.0,0.0,0.0,2
-44.0,-25.0,-53.0,-15.0,-3.0,-5.0,13.0,8.0,0.0,0.0,0.0,0.0,0.0,0.0,0.0,0.0,2
-22.0,21.0,-4.0,1.0,3.0,2.0,25.0,8.0,0.0,0.0,0.0,0.0,0.0,0.0,0.0,0.0,2
30.0,85.0,86.0,38.0,16.0,12.0,32.0,6.0,0.0,0.0,0.0,0.0,0.0,0.0,0.0,0.0,2
63.0,110.0,119.0,58.0,16.0,11.0,22.0,-15.0,0.0,0.0,0.0,0.0,0.0,0.0,0.0,0.0,2
88.0,104.0,122.0,39.0,5.0,2.0,2.0,-21.0,0.0,0.0,0.0,0.0,0.0,0.0,0.0,0.0,2
40.0,47.0,109.0,34.0,7.0,-7.0,-9.0,-13.0,0.0,0.0,0.0,0.0,0.0,0.0,0.0,0.0,2
-29.0,25.0,97.0,32.0,7.0,-2.0,-6.0,-8.0,0.0,0.0,0.0,0.0,0.0,0.0,0.0,0.0,2
-80.0,-8.0,14.0,-6.0,-15.0,-2.0,-10.0,-24.0,0.0,0.0,0.0,0.0,0.0,0.0,0.0,0.0,2
-82.0,-128.0,-176.0,-69.0,-33.0,-8.0,-15.0,-20.0,0.0,0.0,0.0,0.0,0.0,0.0,0.0,0.0,2
-60.0,-170.0,-234.0,-84.0,-28.0,-11.0,3.0,2.0,0.0,0.0,0.0,0.0,0.0,0.0,0.0,0.0,2
-24.0,-85.0,-141.0,-52.0,-5.0,-7.0,8.0,8.0,0.0,0.0,0.0,0.0,0.0,0.0,0.0,0.0,2
-29.0,-51.0,-82.0,-23.0,7.0,-8.0,3.0,15.0,0.0,0.0,0.0,0.0,0.0,0.0,0.0,0.0,2
-5.0,-35.0,-36.0,-10.0,6.0,-4.0,-7.0,15.0,0.0,0.0,0.0,0.0,0.0,0.0,0.0,0.0,2
39.0,27.0,48.0,14.0,6.0,4.0,-7.0,5.0,0.0,0.0,0.0,0.0,0.0,0.0,0.0,0.0,2
69.0,45.0,102.0,36.0,3.0,-3.0,-17.0,-3.0,0.0,0.0,0.0,0.0,0.0,0.0,0.0,0.0,2
65.0,78.0,105.0,38.0,-1.0,-4.0,-32.0,2.0,0.0,0.0,0.0,0.0,0.0,0.0,0.0,0.0,2
43.0,82.0,78.0,28.0,-2.0,-2.0,-27.0,0.0,0.0,0.0,0.0,0.0,0.0,0.0,0.0,0.0,2
2.0,55.0,47.0,19.0,0.0,0.0,-12.0,4.0,0.0,0.0,0.0,0.0,0.0,0.0,0.0,0.0,2
-37.0,22.0,8.0,5.0,3.0,-5.0,-7.0,-5.0,0.0,0.0,0.0,0.0,0.0,0.0,0.0,0.0,2
-24.0,-12.0,-45.0,-19.0,-7.0,3.0,0.0,-2.0,0.0,0.0,0.0,0.0,0.0,0.0,0.0,0.0,2
3.0,-12.0,-61.0,-33.0,-15.0,-2.0,7.0,3.0,0.0,0.0,0.0,0.0,0.0,0.0,0.0,0.0,2
-2.0,-12.0,-18.0,-12.0,-9.0,-5.0,14.0,1.0,0.0,0.0,0.0,0.0,0.0,0.0,0.0,0.0,2
-17.0,-9.0,31.0,11.0,9.0,2.0,17.0,-26.0,0.0,0.0,0.0,0.0,0.0,0.0,0.0,0.0,2
-5.0,-25.0,12.0,4.0,7.0,-1.0,6.0,-38.0,0.0,0.0,0.0,0.0,0.0,0.0,0.0,0.0,2
21.0,-38.0,-29.0,-13.0,2.0,5.0,6.0,-25.0,0.0,0.0,0.0,0.0,0.0,0.0,0.0,0.0,2
-46.0,-36.0,-24.0,3.0,4.0,9.0,18.0,-12.0,0.0,0.0,0.0,0.0,0.0,0.0,0.0,0.0,2
-100.0,-50.0,-37.0,-15.0,-8.0,-6.0,10.0,18.0,0.0,0.0,0.0,0.0,0.0,0.0,0.0,0.0,2
-63.0,-32.0,-27.0,-20.0,-17.0,-17.0,6.0,24.0,0.0,0.0,0.0,0.0,0.0,0.0,0.0,0.0,2
24.0,16.0,-3.0,-15.0,-11.0,-18.0,-4.0,20.0,0.0,0.0,0.0,0.0,0.0,0.0,0.0,0.0,2
40.0,56.0,39.0,11.0,1.0,-5.0,-15.0,-5.0,0.0,0.0,0.0,0.0,0.0,0.0,0.0,0.0,2
23.0,72.0,74.0,30.0,5.0,-5.0,-20.0,-13.0,0.0,0.0,0.0,0.0,0.0,0.0,0.0,0.0,2
5.0,30.0,48.0,21.0,3.0,-7.0,-16.0,-4.0,0.0,0.0,0.0,0.0,0.0,0.0,0.0,0.0,2
1.0,-20.0,-3.0,8.0,5.0,-4.0,-17.0,-2.0,0.0,0.0,0.0,0.0,0.0,0.0,0.0,0.0,2
38.0,-33.0,-19.0,13.0,14.0,-4.0,-7.0,-6.0,0.0,0.0,0.0,0.0,0.0,0.0,0.0,0.0,2
72.0,-1.0,-33.0,-6.0,-1.0,3.0,0.0,-9.0,0.0,0.0,0.0,0.0,0.0,0.0,0.0,0.0,2
52.0,7.0,-45.0,-29.0,-7.0,6.0,-13.0,12.0,0.0,0.0,0.0,0.0,0.0,0.0,0.0,0.0,2
-3.0,-55.0,-50.0,-26.0,-3.0,4.0,-12.0,31.0,0.0,0.0,0.0,0.0,0.0,0.0,0.0,0.0,2
-43.0,-106.0,-85.0,-39.0,-14.0,0.0,-10.0,16.0,0.0,0.0,0.0,0.0,0.0,0.0,0.0,0.0,2
-71.0,-52.0,-43.0,-25.0,-13.0,-1.0,-14.0,-15.0,0.0,0.0,0.0,0.0,0.0,0.0,0.0,0.0,2
-63.0,27.0,57.0,8.0,-8.0,-2.0,-9.0,-23.0,0.0,0.0,0.0,0.0,0.0,0.0,0.0,0.0,2
-7.0,64.0,82.0,13.0,-10.0,3.0,11.0,-1.0,0.0,0.0,0.0,0.0,0.0,0.0,0.0,0.0,2
80.0,52.0,63.0,15.0,-4.0,-3.0,23.0,5.0,0.0,0.0,0.0,0.0,0.0,0.0,0.0,0.0,2
35.0,32.0,-5.0,-16.0,-16.0,-27.0,2.0,-21.0,0.0,0.0,0.0,0.0,0.0,0.0,0.0,0.0,2
-70.0,40.0,-43.0,-38.0,-27.0,-19.0,-10.0,-53.0,0.0,0.0,0.0,0.0,0.0,0.0,0.0,0.0,2
-55.0,76.0,-28.0,2.0,12.0,20.0,10.0,-53.0,0.0,0.0,0.0,0.0,0.0,0.0,0.0,0.0,2
13.0,17.0,-33.0,27.0,34.0,19.0,34.0,40.0,0.0,0.0,0.0,0.0,0.0,0.0,0.0,0.0,2
-56.0,-72.0,-33.0,3.0,7.0,-18.0,1.0,32.0,0.0,0.0,0.0,0.0,0.0,0.0,0.0,0.0,2
0.0,-80.0,-1.0,6.0,-2.0,-20.0,-6.0,4.0,0.0,0.0,0.0,0.0,0.0,0.0,0.0,0.0,2
110.0,-68.0,28.0,20.0,9.0,4.0,2.0,21.0,0.0,0.0,0.0,0.0,0.0,0.0,0.0,0.0,2
49.0,-67.0,42.0,19.0,11.0,7.0,0.0,21.0,0.0,0.0,0.0,0.0,0.0,0.0,0.0,0.0,2
-32.0,-56.0,42.0,12.0,3.0,-5.0,-3.0,-11.0,0.0,0.0,0.0,0.0,0.0,0.0,0.0,0.0,2
-50.0,22.0,35.0,-6.0,-8.0,-4.0,-6.0,-29.0,0.0,0.0,0.0,0.0,0.0,0.0,0.0,0.0,2
-39.0,90.0,21.0,-14.0,-11.0,3.0,-13.0,-16.0,0.0,0.0,0.0,0.0,0.0,0.0,0.0,0.0,2
-14.0,92.0,1.0,-5.0,-4.0,5.0,-7.0,-3.0,0.0,0.0,0.0,0.0,0.0,0.0,0.0,0.0,2
-56.0,39.0,-23.0,-17.0,0.0,3.0,-9.0,1.0,0.0,0.0,0.0,0.0,0.0,0.0,0.0,0.0,2
-29.0,-16.0,-47.0,-21.0,-10.0,-11.0,-22.0,7.0,0.0,0.0,0.0,0.0,0.0,0.0,0.0,0.0,2
13.0,-53.0,-65.0,-20.0,-15.0,-9.0,-26.0,-1.0,0.0,0.0,0.0,0.0,0.0,0.0,0.0,0.0,2
37.0,-54.0,-46.0,-9.0,-6.0,-7.0,-26.0,-7.0,0.0,0.0,0.0,0.0,0.0,0.0,0.0,0.0,2
112.0,-29.0,-25.0,3.0,0.0,-5.0,-7.0,9.0,0.0,0.0,0.0,0.0,0.0,0.0,0.0,0.0,2
102.0,-15.0,-4.0,12.0,6.0,-2.0,6.0,13.0,0.0,0.0,0.0,0.0,0.0,0.0,0.0,0.0,2
36.0,-4.0,-3.0,3.0,0.0,1.0,11.0,5.0,0.0,0.0,0.0,0.0,0.0,0.0,0.0,0.0,2
-30.0,36.0,14.0,-1.0,-2.0,11.0,14.0,0.0,0.0,0.0,0.0,0.0,0.0,0.0,0.0,0.0,2
-87.0,46.0,34.0,-4.0,-6.0,1.0,20.0,-4.0,0.0,0.0,0.0,0.0,0.0,0.0,0.0,0.0,2
-93.0,57.0,35.0,-4.0,-6.0,1.0,27.0,-8.0,0.0,0.0,0.0,0.0,0.0,0.0,0.0,0.0,2
-52.0,58.0,43.0,-2.0,-2.0,-4.0,14.0,-7.0,0.0,0.0,0.0,0.0,0.0,0.0,0.0,0.0,2
-10.0,15.0,28.0,-10.0,-6.0,-15.0,-3.0,-17.0,0.0,0.0,0.0,0.0,0.0,0.0,0.0,0.0,2
34.0,-44.0,3.0,0.0,-1.0,-9.0,-10.0,-20.0,0.0,0.0,0.0,0.0,0.0,0.0,0.0,0.0,2
26.0,-106.0,-11.0,4.0,6.0,-7.0,-10.0,-16.0,0.0,0.0,0.0,0.0,0.0,0.0,0.0,0.0,2
16.0,-131.0,-22.0,5.0,1.0,-7.0,-16.0,-7.0,0.0,0.0,0.0,0.0,0.0,0.0,0.0,0.0,2
-7.0,-61.0,-22.0,-8.0,-6.0,-15.0,-17.0,-1.0,0.0,0.0,0.0,0.0,0.0,0.0,0.0,0.0,2
-26.0,12.0,-24.0,-15.0,-11.0,-17.0,-7.0,-6.0,0.0,0.0,0.0,0.0,0.0,0.0,0.0,0.0,2
-6.0,10.0,-47.0,-18.0,-7.0,-6.0,2.0,-16.0,0.0,0.0,0.0,0.0,0.0,0.0,0.0,0.0,2
-3.0,32.0,-47.0,-17.0,-6.0,1.0,-10.0,-6.0,0.0,0.0,0.0,0.0,0.0,0.0,0.0,0.0,2
-27.0,75.0,-1.0,8.0,3.0,14.0,5.0,19.0,0.0,0.0,0.0,0.0,0.0,0.0,0.0,0.0,2
-19.0,110.0,23.0,7.0,11.0,10.0,9.0,28.0,0.0,0.0,0.0,0.0,0.0,0.0,0.0,0.0,2
-19.0,115.0,26.0,5.0,-3.0,3.0,-10.0,37.0,0.0,0.0,0.0,0.0,0.0,0.0,0.0,0.0,2
43.0,54.0,19.0,12.0,0.0,7.0,-9.0,39.0,0.0,0.0,0.0,0.0,0.0,0.0,0.0,0.0,2
83.0,-39.0,2.0,-2.0,-6.0,11.0,-5.0,9.0,0.0,0.0,0.0,0.0,0.0,0.0,0.0,0.0,2
92.0,-60.0,11.0,7.0,11.0,22.0,-7.0,-26.0,0.0,0.0,0.0,0.0,0.0,0.0,0.0,0.0,2
10.0,-75.0,1.0,-6.0,0.0,2.0,-10.0,-22.0,0.0,0.0,0.0,0.0,0.0,0.0,0.0,0.0,2
-57.0,-112.0,-26.0,-25.0,-13.0,-19.0,-15.0,-15.0,0.0,0.0,0.0,0.0,0.0,0.0,0.0,0.0,2
-79.0,-102.0,-15.0,-10.0,-8.0,-19.0,-8.0,-24.0,0.0,0.0,0.0,0.0,0.0,0.0,0.0,0.0,2
-74.0,-59.0,-2.0,9.0,-6.0,-19.0,4.0,-27.0,0.0,0.0,0.0,0.0,0.0,0.0,0.0,0.0,2
-32.0,3.0,1.0,13.0,0.0,-21.0,7.0,-30.0,0.0,0.0,0.0,0.0,0.0,0.0,0.0,0.0,2
9.0,52.0,-12.0,0.0,-3.0,-13.0,1.0,-32.0,0.0,0.0,0.0,0.0,0.0,0.0,0.0,0.0,2
45.0,68.0,-9.0,-11.0,-12.0,-5.0,1.0,-61.0,0.0,0.0,0.0,0.0,0.0,0.0,0.0,0.0,2
32.0,87.0,-12.0,-16.0,-6.0,4.0,12.0,-8.0,0.0,0.0,0.0,0.0,0.0,0.0,0.0,0.0,2
-13.0,70.0,7.0,-12.0,10.0,12.0,33.0,89.0,0.0,0.0,0.0,0.0,0.0,0.0,0.0,0.0,2
-67.0,9.0,9.0,-14.0,-7.0,12.0,25.0,107.0,0.0,0.0,0.0,0.0,0.0,0.0,0.0,0.0,2
9.0,-28.0,5.0,-7.0,0.0,13.0,13.0,64.0,0.0,0.0,0.0,0.0,0.0,0.0,0.0,0.0,2
39.0,-31.0,8.0,6.0,13.0,5.0,6.0,16.0,0.0,0.0,0.0,0.0,0.0,0.0,0.0,0.0,2
-1.0,-38.0,10.0,25.0,15.0,-3.0,-9.0,-32.0,0.0,0.0,0.0,0.0,0.0,0.0,0.0,0.0,2
-12.0,-55.0,-15.0,8.0,-2.0,-4.0,-21.0,-44.0,0.0,0.0,0.0,0.0,0.0,0.0,0.0,0.0,2
-19.0,-42.0,-17.0,-3.0,-19.0,-10.0,-24.0,-49.0,0.0,0.0,0.0,0.0,0.0,0.0,0.0,0.0,2
27.0,-4.0,-6.0,-5.0,-15.0,-18.0,-30.0,-48.0,0.0,0.0,0.0,0.0,0.0,0.0,0.0,0.0,2
92.0,44.0,-6.0,0.0,-12.0,-17.0,-32.0,-26.0,0.0,0.0,0.0,0.0,0.0,0.0,0.0,0.0,2
59.0,90.0,-5.0,1.0,-7.0,-26.0,-35.0,-24.0,0.0,0.0,0.0,0.0,0.0,0.0,0.0,0.0,2
-15.0,51.0,12.0,8.0,1.0,-24.0,-38.0,-26.0,0.0,0.0,0.0,0.0,0.0,0.0,0.0,0.0,2
-43.0,-59.0,9.0,16.0,9.0,13.0,-15.0,12.0,0.0,0.0,0.0,0.0,0.0,0.0,0.0,0.0,2
-83.0,-101.0,-18.0,-7.0,-4.0,15.0,19.0,58.0,0.0,0.0,0.0,0.0,0.0,0.0,0.0,0.0,2
-129.0,-108.0,-34.0,-19.0,-12.0,6.0,5.0,49.0,0.0,0.0,0.0,0.0,0.0,0.0,0.0,0.0,2
-119.0,-71.0,-28.0,-20.0,-9.0,-5.0,-16.0,3.0,0.0,0.0,0.0,0.0,0.0,0.0,0.0,0.0,2
-7.0,15.0,3.0,1.0,18.0,34.0,32.0,10.0,0.0,0.0,0.0,0.0,0.0,0.0,0.0,0.0,2
57.0,22.0,0.0,-8.0,8.0,42.0,60.0,-15.0,0.0,0.0,0.0,0.0,0.0,0.0,0.0,0.0,2
74.0,8.0,-21.0,-31.0,-2.0,27.0,38.0,-52.0,0.0,0.0,0.0,0.0,0.0,0.0,0.0,0.0,2
115.0,144.0,41.0,-7.0,9.0,26.0,49.0,-39.0,0.0,0.0,0.0,0.0,0.0,0.0,0.0,0.0,2
116.0,204.0,64.0,5.0,-13.0,-12.0,19.0,-18.0,0.0,0.0,0.0,0.0,0.0,0.0,0.0,0.0,2
120.0,147.0,42.0,-6.0,-36.0,-68.0,-48.0,19.0,0.0,0.0,0.0,0.0,0.0,0.0,0.0,0.0,2
27.0,-25.0,-11.0,-18.0,-40.0,-67.0,-26.0,29.0,0.0,0.0,0.0,0.0,0.0,0.0,0.0,0.0,2
-120.0,-119.0,-33.0,4.0,-10.0,-39.0,7.0,14.0,0.0,0.0,0.0,0.0,0.0,0.0,0.0,0.0,2
-199.0,-166.0,-33.0,3.0,-8.0,-62.0,-38.0,-18.0,0.0,0.0,0.0,0.0,0.0,0.0,0.0,0.0,2
-143.0,-89.0,-16.0,7.0,-4.0,-45.0,-68.0,-38.0,0.0,0.0,0.0,0.0,0.0,0.0,0.0,0.0,2
-62.0,-24.0,4.0,19.0,18.0,46.0,-31.0,-6.0,0.0,0.0,0.0,0.0,0.0,0.0,0.0,0.0,2
-26.0,-30.0,-1.0,32.0,48.0,121.0,19.0,35.0,0.0,0.0,0.0,0.0,0.0,0.0,0.0,0.0,2
25.0,-40.0,-6.0,28.0,52.0,85.0,10.0,23.0,0.0,0.0,0.0,0.0,0.0,0.0,0.0,0.0,2
50.0,-84.0,-27.0,-2.0,12.0,-16.0,-52.0,-4.0,0.0,0.0,0.0,0.0,0.0,0.0,0.0,0.0,2
76.0,-56.0,-21.0,-12.0,-19.0,-55.0,-27.0,29.0,0.0,0.0,0.0,0.0,0.0,0.0,0.0,0.0,2
128.0,45.0,-7.0,-12.0,-22.0,-30.0,-17.0,29.0,0.0,0.0,0.0,0.0,0.0,0.0,0.0,0.0,2
154.0,164.0,-17.0,-36.0,-35.0,6.0,71.0,18.0,0.0,0.0,0.0,0.0,0.0,0.0,0.0,0.0,2
130.0,382.0,22.0,-27.0,-26.0,16.0,146.0,7.0,0.0,0.0,0.0,0.0,0.0,0.0,0.0,0.0,2
97.0,364.0,61.0,4.0,5.0,41.0,100.0,-62.0,0.0,0.0,0.0,0.0,0.0,0.0,0.0,0.0,2
-54.0,62.0,51.0,-6.0,-20.0,26.0,15.0,-125.0,0.0,0.0,0.0,0.0,0.0,0.0,0.0,0.0,2
-323.0,-461.0,0.0,-13.0,-28.0,-6.0,-144.0,-86.0,0.0,0.0,0.0,0.0,0.0,0.0,0.0,0.0,2
-308.0,-711.0,-80.0,2.0,-10.0,-49.0,-230.0,-48.0,0.0,0.0,0.0,0.0,0.0,0.0,0.0,0.0,2
-131.0,-635.0,-169.0,-49.0,-31.0,-114.0,-124.0,39.0,0.0,0.0,0.0,0.0,0.0,0.0,0.0,0.0,2
29.0,-280.0,-155.0,-62.0,-15.0,-96.0,4.0,64.0,0.0,0.0,0.0,0.0,0.0,0.0,0.0,0.0,2
151.0,436.0,18.0,20.0,51.0,-14.0,133.0,104.0,0.0,0.0,0.0,0.0,0.0,0.0,0.0,0.0,2
162.0,880.0,182.0,95.0,90.0,34.0,168.0,73.0,0.0,0.0,0.0,0.0,0.0,0.0,0.0,0.0,2
112.0,751.0,244.0,93.0,46.0,8.0,61.0,-55.0,0.0,0.0,0.0,0.0,0.0,0.0,0.0,0.0,2
-79.0,201.0,146.0,29.0,-23.0,4.0,-38.0,-54.0,0.0,0.0,0.0,0.0,0.0,0.0,0.0,0.0,2
-176.0,-217.0,-2.0,-42.0,-60.0,33.0,-113.0,19.0,0.0,0.0,0.0,0.0,0.0,0.0,0.0,0.0,2
15.0,-304.0,-104.0,-68.0,-34.0,50.0,-116.0,-1.0,0.0,0.0,0.0,0.0,0.0,0.0,0.0,0.0,2
143.0,-342.0,-130.0,-41.0,8.0,48.0,67.0,33.0,0.0,0.0,0.0,0.0,0.0,0.0,0.0,0.0,2
158.0,-272.0,-69.0,0.0,47.0,156.0,144.0,21.0,0.0,0.0,0.0,0.0,0.0,0.0,0.0,0.0,2
148.0,-179.0,-83.0,-34.0,5.0,191.0,111.0,-91.0,0.0,0.0,0.0,0.0,0.0,0.0,0.0,0.0,2
144.0,160.0,-32.0,-50.0,-78.0,29.0,62.0,-69.0,0.0,0.0,0.0,0.0,0.0,0.0,0.0,0.0,2
-1.0,409.0,46.0,-6.0,-62.0,-27.0,14.0,76.0,0.0,0.0,0.0,0.0,0.0,0.0,0.0,0.0,2
-204.0,80.0,17.0,31.0,13.0,28.0,7.0,-1.0,0.0,0.0,0.0,0.0,0.0,0.0,0.0,0.0,2
-287.0,-183.0,24.0,82.0,107.0,-101.0,-77.0,-62.0,0.0,0.0,0.0,0.0,0.0,0.0,0.0,0.0,2
-439.0,-295.0,-14.0,43.0,46.0,-546.0,-238.0,1.0,0.0,0.0,0.0,0.0,0.0,0.0,0.0,0.0,2
-289.0,-265.0,0.0,4.0,-48.0,-515.0,-342.0,37.0,0.0,0.0,0.0,0.0,0.0,0.0,0.0,0.0,2
79.0,-82.0,48.0,16.0,-31.0,-87.0,-189.0,-35.0,0.0,0.0,0.0,0.0,0.0,0.0,0.0,0.0,2
418.0,73.0,19.0,2.0,4.0,249.0,108.0,10.0,0.0,0.0,0.0,0.0,0.0,0.0,0.0,0.0,2
394.0,153.0,-23.0,-55.0,-12.0,371.0,260.0,0.0,0.0,0.0,0.0,0.0,0.0,0.0,0.0,0.0,2
204.0,125.0,-51.0,-67.0,-3.0,341.0,292.0,23.0,0.0,0.0,0.0,0.0,0.0,0.0,0.0,0.0,2
86.0,60.0,-44.0,-43.0,10.0,220.0,176.0,104.0,0.0,0.0,0.0,0.0,0.0,0.0,0.0,0.0,2
-77.0,-7.0,-37.0,-12.0,19.0,118.0,108.0,222.0,0.0,0.0,0.0,0.0,0.0,0.0,0.0,0.0,2
-182.0,155.0,14.0,15.0,24.0,-54.0,74.0,132.0,0.0,0.0,0.0,0.0,0.0,0.0,0.0,0.0,2
-70.0,469.0,83.0,31.0,-1.0,-93.0,-68.0,-126.0,0.0,0.0,0.0,0.0,0.0,0.0,0.0,0.0,2
-41.0,411.0,104.0,21.0,-58.0,-113.0,-259.0,-313.0,0.0,0.0,0.0,0.0,0.0,0.0,0.0,0.0,2
-111.0,16.0,106.0,30.0,-70.0,-45.0,-268.0,-326.0,0.0,0.0,0.0,0.0,0.0,0.0,0.0,0.0,2
-156.0,-414.0,-17.0,-35.0,-124.0,-235.0,-366.0,-255.0,0.0,0.0,0.0,0.0,0.0,0.0,0.0,0.0,2
-164.0,-521.0,-136.0,-112.0,-97.0,-239.0,-305.0,-213.0,0.0,0.0,0.0,0.0,0.0,0.0,0.0,0.0,2
-13.0,-298.0,-77.0,-19.0,88.0,-42.0,424.0,274.0,0.0,0.0,0.0,0.0,0.0,0.0,0.0,0.0,2
176.0,-170.0,-8.0,83.0,176.0,-224.0,511.0,455.0,0.0,0.0,0.0,0.0,0.0,0.0,0.0,0.0,2
261.0,-73.0,24.0,96.0,121.0,-95.0,103.0,197.0,0.0,0.0,0.0,0.0,0.0,0.0,0.0,0.0,2
183.0,21.0,-7.0,38.0,44.0,306.0,-135.0,32.0,0.0,0.0,0.0,0.0,0.0,0.0,0.0,0.0,2
-18.0,-24.0,-66.0,-34.0,-20.0,449.0,-104.0,66.0,0.0,0.0,0.0,0.0,0.0,0.0,0.0,0.0,2
-82.0,84.0,-66.0,-49.0,-46.0,378.0,-11.0,96.0,0.0,0.0,0.0,0.0,0.0,0.0,0.0,0.0,2
-80.0,328.0,-18.0,-17.0,-23.0,203.0,81.0,43.0,0.0,0.0,0.0,0.0,0.0,0.0,0.0,0.0,2
-109.0,316.0,35.0,6.0,10.0,-8.0,165.0,-110.0,0.0,0.0,0.0,0.0,0.0,0.0,0.0,0.0,2
-167.0,93.0,49.0,-28.0,-55.0,-309.0,4.0,-214.0,0.0,0.0,0.0,0.0,0.0,0.0,0.0,0.0,2
-220.0,-96.0,37.0,-63.0,-128.0,-507.0,-198.0,-167.0,0.0,0.0,0.0,0.0,0.0,0.0,0.0,0.0,2
-48.0,-163.0,62.0,-8.0,-77.0,-376.0,-196.0,-121.0,0.0,0.0,0.0,0.0,0.0,0.0,0.0,0.0,2
192.0,-131.0,28.0,26.0,-6.0,-92.0,-159.0,-58.0,0.0,0.0,0.0,0.0,0.0,0.0,0.0,0.0,2
335.0,-112.0,-11.0,39.0,59.0,139.0,-115.0,-41.0,0.0,0.0,0.0,0.0,0.0,0.0,0.0,0.0,2
281.0,-25.0,-10.0,24.0,67.0,199.0,14.0,-46.0,0.0,0.0,0.0,0.0,0.0,0.0,0.0,0.0,2
65.0,130.0,-44.0,-22.0,28.0,210.0,187.0,35.0,0.0,0.0,0.0,0.0,0.0,0.0,0.0,0.0,2
-91.0,266.0,-47.0,-41.0,25.0,258.0,282.0,156.0,0.0,0.0,0.0,0.0,0.0,0.0,0.0,0.0,2
-181.0,216.0,3.0,-13.0,17.0,81.0,165.0,213.0,0.0,0.0,0.0,0.0,0.0,0.0,0.0,0.0,2
-134.0,70.0,49.0,26.0,11.0,-105.0,31.0,218.0,0.0,0.0,0.0,0.0,0.0,0.0,0.0,0.0,2
-117.0,-52.0,51.0,11.0,-16.0,-6.0,122.0,97.0,0.0,0.0,0.0,0.0,0.0,0.0,0.0,0.0,2
-195.0,-238.0,28.0,3.0,-26.0,71.0,153.0,46.0,0.0,0.0,0.0,0.0,0.0,0.0,0.0,0.0,2
-188.0,-365.0,0.0,25.0,-16.0,-132.0,-188.0,-82.0,0.0,0.0,0.0,0.0,0.0,0.0,0.0,0.0,2
44.0,-282.0,-26.0,50.0,43.0,-29.0,-262.0,-307.0,0.0,0.0,0.0,0.0,0.0,0.0,0.0,0.0,2
337.0,-212.0,-88.0,29.0,74.0,168.0,-149.0,-353.0,0.0,0.0,0.0,0.0,0.0,0.0,0.0,0.0,2
375.0,-105.0,-169.0,-98.0,-76.0,-153.0,-307.0,-169.0,0.0,0.0,0.0,0.0,0.0,0.0,0.0,0.0,2
72.0,190.0,-98.0,-123.0,-161.0,-354.0,-297.0,92.0,0.0,0.0,0.0,0.0,0.0,0.0,0.0,0.0,2
-121.0,497.0,6.0,-57.0,-73.0,-139.0,-93.0,-22.0,0.0,0.0,0.0,0.0,0.0,0.0,0.0,0.0,2
-7.0,448.0,71.0,21.0,54.0,97.0,74.0,88.0,0.0,0.0,0.0,0.0,0.0,0.0,0.0,0.0,2
-222.0,98.0,84.0,44.0,86.0,136.0,319.0,295.0,0.0,0.0,0.0,0.0,0.0,0.0,0.0,0.0,2
-271.0,-147.0,148.0,96.0,84.0,64.0,452.0,230.0,0.0,0.0,0.0,0.0,0.0,0.0,0.0,0.0,2
-234.0,-190.0,134.0,94.0,32.0,58.0,199.0,167.0,0.0,0.0,0.0,0.0,0.0,0.0,0.0,0.0,2
-314.0,-69.0,5.0,-37.0,-97.0,-71.0,-52.0,5.0,0.0,0.0,0.0,0.0,0.0,0.0,0.0,0.0,2
143.0,-15.0,-92.0,-136.0,-176.0,-307.0,-114.0,-95.0,0.0,0.0,0.0,0.0,0.0,0.0,0.0,0.0,2
676.0,-43.0,-103.0,-83.0,-76.0,-221.0,-58.0,-193.0,0.0,0.0,0.0,0.0,0.0,0.0,0.0,0.0,2
486.0,-92.0,-27.0,53.0,95.0,15.0,-80.0,-221.0,0.0,0.0,0.0,0.0,0.0,0.0,0.0,0.0,2
139.0,-193.0,-63.0,82.0,163.0,131.0,-110.0,-116.0,0.0,0.0,0.0,0.0,0.0,0.0,0.0,0.0,2
-201.0,-200.0,-76.0,41.0,106.0,261.0,-71.0,-68.0,0.0,0.0,0.0,0.0,0.0,0.0,0.0,0.0,2
-231.0,53.0,43.0,17.0,19.0,377.0,-1.0,-88.0,0.0,0.0,0.0,0.0,0.0,0.0,0.0,0.0,2
-245.0,173.0,69.0,-26.0,-43.0,327.0,124.0,40.0,0.0,0.0,0.0,0.0,0.0,0.0,0.0,0.0,2
-233.0,251.0,76.0,-34.0,-38.0,212.0,169.0,116.0,0.0,0.0,0.0,0.0,0.0,0.0,0.0,0.0,2
-196.0,273.0,73.0,-31.0,-30.0,30.0,127.0,146.0,0.0,0.0,0.0,0.0,0.0,0.0,0.0,0.0,2
134.0,331.0,51.0,-22.0,-13.0,-126.0,-33.0,99.0,0.0,0.0,0.0,0.0,0.0,0.0,0.0,0.0,2
471.0,201.0,-9.0,2.0,-6.0,-287.0,-195.0,-23.0,0.0,0.0,0.0,0.0,0.0,0.0,0.0,0.0,2
93.0,-286.0,-63.0,46.0,4.0,-330.0,-150.0,7.0,0.0,0.0,0.0,0.0,0.0,0.0,0.0,0.0,2
-369.0,-701.0,-86.0,56.0,16.0,-246.0,32.0,168.0,0.0,0.0,0.0,0.0,0.0,0.0,0.0,0.0,2
-379.0,-870.0,-173.0,-48.0,-54.0,-159.0,36.0,66.0,0.0,0.0,0.0,0.0,0.0,0.0,0.0,0.0,2
-129.0,-584.0,-208.0,-110.0,-82.0,-109.0,-48.0,-58.0,0.0,0.0,0.0,0.0,0.0,0.0,0.0,0.0,2
128.0,-17.0,-122.0,-82.0,-55.0,-188.0,-174.0,-125.0,0.0,0.0,0.0,0.0,0.0,0.0,0.0,0.0,2
345.0,684.0,55.0,-6.0,2.0,-81.0,-56.0,-78.0,0.0,0.0,0.0,0.0,0.0,0.0,0.0,0.0,2
510.0,1179.0,229.0,59.0,70.0,309.0,126.0,-30.0,0.0,0.0,0.0,0.0,0.0,0.0,0.0,0.0,2
390.0,1027.0,265.0,71.0,67.0,488.0,146.0,-63.0,0.0,0.0,0.0,0.0,0.0,0.0,0.0,0.0,2
72.0,357.0,169.0,51.0,2.0,398.0,-28.0,-111.0,0.0,0.0,0.0,0.0,0.0,0.0,0.0,0.0,2
-272.0,-299.0,97.0,78.0,41.0,391.0,67.0,62.0,0.0,0.0,0.0,0.0,0.0,0.0,0.0,0.0,2
-537.0,-649.0,21.0,69.0,98.0,177.0,308.0,128.0,0.0,0.0,0.0,0.0,0.0,0.0,0.0,0.0,2
-546.0,-760.0,-125.0,-18.0,23.0,-423.0,29.0,-40.0,0.0,0.0,0.0,0.0,0.0,0.0,0.0,0.0,2
-382.0,-633.0,-237.0,-118.0,-139.0,-915.0,-311.0,-147.0,0.0,0.0,0.0,0.0,0.0,0.0,0.0,0.0,2
-180.0,-316.0,-236.0,-160.0,-204.0,-727.0,-419.0,-117.0,0.0,0.0,0.0,0.0,0.0,0.0,0.0,0.0,2
156.0,8.0,-83.0,-78.0,-95.0,-183.0,-224.0,29.0,0.0,0.0,0.0,0.0,0.0,0.0,0.0,0.0,2
616.0,314.0,117.0,63.0,67.0,337.0,180.0,107.0,0.0,0.0,0.0,0.0,0.0,0.0,0.0,0.0,2
693.0,450.0,164.0,106.0,143.0,555.0,324.0,159.0,0.0,0.0,0.0,0.0,0.0,0.0,0.0,0.0,2
380.0,450.0,99.0,68.0,108.0,494.0,222.0,118.0,0.0,0.0,0.0,0.0,0.0,0.0,0.0,0.0,2
-54.0,391.0,13.0,-22.0,-10.0,251.0,84.0,-42.0,0.0,0.0,0.0,0.0,0.0,0.0,0.0,0.0,2
-327.0,30.0,-82.0,-89.0,-55.0,163.0,-7.0,-50.0,0.0,0.0,0.0,0.0,0.0,0.0,0.0,0.0,2
-389.0,-308.0,-106.0,-85.0,-40.0,27.0,-34.0,-35.0,0.0,0.0,0.0,0.0,0.0,0.0,0.0,0.0,2
-185.0,-241.0,-34.0,-18.0,-43.0,-273.0,-129.0,-61.0,0.0,0.0,0.0,0.0,0.0,0.0,0.0,0.0,2
-188.0,-287.0,0.0,48.0,14.0,-244.0,-146.0,-26.0,0.0,0.0,0.0,0.0,0.0,0.0,0.0,0.0,2
-231.0,-404.0,3.0,108.0,81.0,-121.0,-25.0,49.0,0.0,0.0,0.0,0.0,0.0,0.0,0.0,0.0,2
78.0,-282.0,-24.0,74.0,69.0,-46.0,66.0,97.0,0.0,0.0,0.0,0.0,0.0,0.0,0.0,0.0,2
184.0,92.0,-13.0,-14.0,-21.0,-135.0,6.0,32.0,0.0,0.0,0.0,0.0,0.0,0.0,0.0,0.0,2
234.0,356.0,39.0,-52.0,-87.0,-150.0,-89.0,-89.0,0.0,0.0,0.0,0.0,0.0,0.0,0.0,0.0,2
285.0,461.0,72.0,-50.0,-90.0,-88.0,-90.0,-129.0,0.0,0.0,0.0,0.0,0.0,0.0,0.0,0.0,2
106.0,461.0,104.0,-13.0,-57.0,-55.0,-44.0,-87.0,0.0,0.0,0.0,0.0,0.0,0.0,0.0,0.0,2
-105.0,4.0,-10.0,-35.0,-38.0,-45.0,-86.0,-97.0,0.0,0.0,0.0,0.0,0.0,0.0,0.0,0.0,2
-162.0,-169.0,-79.0,-31.0,10.0,84.0,-6.0,-31.0,0.0,0.0,0.0,0.0,0.0,0.0,0.0,0.0,2
-172.0,-172.0,-22.0,41.0,86.0,215.0,107.0,105.0,0.0,0.0,0.0,0.0,0.0,0.0,0.0,0.0,2
0.0,-179.0,53.0,106.0,129.0,309.0,230.0,198.0,0.0,0.0,0.0,0.0,0.0,0.0,0.0,0.0,2
-116.0,-250.0,40.0,56.0,97.0,402.0,354.0,186.0,0.0,0.0,0.0,0.0,0.0,0.0,0.0,0.0,2
-80.0,-105.0,-1.0,-49.0,0.0,218.0,169.0,93.0,0.0,0.0,0.0,0.0,0.0,0.0,0.0,0.0,2
-66.0,83.0,-27.0,-95.0,-83.0,-102.0,-129.0,-39.0,0.0,0.0,0.0,0.0,0.0,0.0,0.0,0.0,2
-3.0,88.0,-49.0,-74.0,-82.0,-261.0,-207.0,-162.0,0.0,0.0,0.0,0.0,0.0,0.0,0.0,0.0,2
95.0,42.0,-74.0,-36.0,-48.0,-325.0,-265.0,-176.0,0.0,0.0,0.0,0.0,0.0,0.0,0.0,0.0,2
224.0,154.0,-41.0,2.0,-31.0,-308.0,-239.0,-150.0,0.0,0.0,0.0,0.0,0.0,0.0,0.0,0.0,2
366.0,97.0,36.0,65.0,19.0,-137.0,6.0,18.0,0.0,0.0,0.0,0.0,0.0,0.0,0.0,0.0,2
71.0,-96.0,-7.0,25.0,-2.0,-34.0,8.0,65.0,0.0,0.0,0.0,0.0,0.0,0.0,0.0,0.0,2
-139.0,-47.0,-28.0,15.0,2.0,35.0,6.0,39.0,0.0,0.0,0.0,0.0,0.0,0.0,0.0,0.0,2
-2.0,127.0,-5.0,11.0,10.0,150.0,96.0,29.0,0.0,0.0,0.0,0.0,0.0,0.0,0.0,0.0,2
-191.0,-66.0,-35.0,-36.0,-23.0,208.0,123.0,7.0,0.0,0.0,0.0,0.0,0.0,0.0,0.0,0.0,2
-289.0,-222.0,-34.0,-16.0,-26.0,172.0,46.0,-6.0,0.0,0.0,0.0,0.0,0.0,0.0,0.0,0.0,2
-167.0,-167.0,-23.0,4.0,5.0,86.0,-49.0,-1.0,0.0,0.0,0.0,0.0,0.0,0.0,0.0,0.0,2
39.0,110.0,53.0,28.0,70.0,0.0,37.0,66.0,0.0,0.0,0.0,0.0,0.0,0.0,0.0,0.0,2
161.0,68.0,125.0,32.0,60.0,-288.0,33.0,91.0,0.0,0.0,0.0,0.0,0.0,0.0,0.0,0.0,2
43.0,-134.0,62.0,-28.0,-31.0,-274.0,-49.0,-16.0,0.0,0.0,0.0,0.0,0.0,0.0,0.0,0.0,2
-20.0,108.0,75.0,-4.0,-23.0,-10.0,-44.0,-45.0,0.0,0.0,0.0,0.0,0.0,0.0,0.0,0.0,2
73.0,280.0,107.0,63.0,47.0,259.0,53.0,0.0,0.0,0.0,0.0,0.0,0.0,0.0,0.0,0.0,2
111.0,140.0,51.0,55.0,54.0,327.0,98.0,11.0,0.0,0.0,0.0,0.0,0.0,0.0,0.0,0.0,2
40.0,-136.0,-147.0,-76.0,-54.0,15.0,-62.0,-115.0,0.0,0.0,0.0,0.0,0.0,0.0,0.0,0.0,2
-40.0,-304.0,-272.0,-164.0,-130.0,-261.0,-175.0,-131.0,0.0,0.0,0.0,0.0,0.0,0.0,0.0,0.0,2
-88.0,-194.0,-249.0,-138.0,-89.0,-220.0,-46.0,45.0,0.0,0.0,0.0,0.0,0.0,0.0,0.0,0.0,2
-110.0,136.0,-120.0,-113.0,-92.0,-244.0,-34.0,20.0,0.0,0.0,0.0,0.0,0.0,0.0,0.0,0.0,2
-124.0,172.0,40.0,-23.0,-78.0,-158.0,-137.0,-107.0,0.0,0.0,0.0,0.0,0.0,0.0,0.0,0.0,2
124.0,-23.0,165.0,150.0,83.0,271.0,101.0,-34.0,0.0,0.0,0.0,0.0,0.0,0.0,0.0,0.0,2
89.0,-88.0,211.0,245.0,225.0,480.0,301.0,137.0,0.0,0.0,0.0,0.0,0.0,0.0,0.0,0.0,2
-58.0,55.0,198.0,197.0,185.0,202.0,188.0,167.0,0.0,0.0,0.0,0.0,0.0,0.0,0.0,0.0,2
-35.0,222.0,146.0,116.0,100.0,76.0,85.0,105.0,0.0,0.0,0.0,0.0,0.0,0.0,0.0,0.0,2
19.0,212.0,58.0,14.0,-9.0,-85.0,-122.0,0.0,0.0,0.0,0.0,0.0,0.0,0.0,0.0,0.0,2
134.0,44.0,-22.0,-69.0,-113.0,-221.0,-264.0,-87.0,0.0,0.0,0.0,0.0,0.0,0.0,0.0,0.0,2
118.0,-242.0,-92.0,-112.0,-116.0,-141.0,-136.0,-33.0,0.0,0.0,0.0,0.0,0.0,0.0,0.0,0.0,2
38.0,-332.0,-211.0,-162.0,-96.0,-82.0,-29.0,-83.0,0.0,0.0,0.0,0.0,0.0,0.0,0.0,0.0,2
-37.0,-186.0,-264.0,-167.0,-65.0,-87.0,-35.0,-56.0,0.0,0.0,0.0,0.0,0.0,0.0,0.0,0.0,2
-129.0,-56.0,-259.0,-151.0,-47.0,9.0,125.0,45.0,0.0,0.0,0.0,0.0,0.0,0.0,0.0,0.0,2
-109.0,83.0,-80.0,-75.0,-30.0,7.0,78.0,-23.0,0.0,0.0,0.0,0.0,0.0,0.0,0.0,0.0,2
-139.0,-38.0,78.0,-8.0,-34.0,-72.0,-98.0,-87.0,0.0,0.0,0.0,0.0,0.0,0.0,0.0,0.0,2
-45.0,70.0,210.0,81.0,14.0,-82.0,-115.0,84.0,0.0,0.0,0.0,0.0,0.0,0.0,0.0,0.0,2
-44.0,208.0,289.0,164.0,61.0,12.0,-68.0,77.0,0.0,0.0,0.0,0.0,0.0,0.0,0.0,0.0,2
-25.0,249.0,241.0,145.0,54.0,58.0,-30.0,-92.0,0.0,0.0,0.0,0.0,0.0,0.0,0.0,0.0,2
91.0,198.0,123.0,97.0,51.0,122.0,112.0,-122.0,0.0,0.0,0.0,0.0,0.0,0.0,0.0,0.0,2
102.0,-13.0,0.0,42.0,42.0,145.0,247.0,-20.0,0.0,0.0,0.0,0.0,0.0,0.0,0.0,0.0,2
96.0,-241.0,-151.0,-11.0,25.0,56.0,171.0,10.0,0.0,0.0,0.0,0.0,0.0,0.0,0.0,0.0,2
129.0,-389.0,-304.0,-111.0,-13.0,38.0,131.0,127.0,0.0,0.0,0.0,0.0,0.0,0.0,0.0,0.0,2
162.0,-248.0,-269.0,-129.0,-6.0,94.0,64.0,168.0,0.0,0.0,0.0,0.0,0.0,0.0,0.0,0.0,2
-41.0,-4.0,-132.0,-93.0,-13.0,-22.0,-123.0,81.0,0.0,0.0,0.0,0.0,0.0,0.0,0.0,0.0,2
-125.0,293.0,82.0,-9.0,-40.0,-205.0,-254.0,-43.0,0.0,0.0,0.0,0.0,0.0,0.0,0.0,0.0,2
-213.0,297.0,160.0,16.0,-83.0,-316.0,-327.0,-142.0,0.0,0.0,0.0,0.0,0.0,0.0,0.0,0.0,2
-122.0,73.0,135.0,41.0,-45.0,-163.0,-197.0,-140.0,0.0,0.0,0.0,0.0,0.0,0.0,0.0,0.0,2
74.0,61.0,123.0,74.0,40.0,133.0,26.0,-56.0,0.0,0.0,0.0,0.0,0.0,0.0,0.0,0.0,2
-134.0,77.0,79.0,57.0,24.0,134.0,27.0,-34.0,0.0,0.0,0.0,0.0,0.0,0.0,0.0,0.0,2
-115.0,-73.0,-19.0,41.0,31.0,171.0,154.0,148.0,0.0,0.0,0.0,0.0,0.0,0.0,0.0,0.0,2
114.0,-169.0,-70.0,-2.0,53.0,193.0,317.0,161.0,0.0,0.0,0.0,0.0,0.0,0.0,0.0,0.0,2
189.0,-190.0,-65.0,-39.0,21.0,117.0,244.0,1.0,0.0,0.0,0.0,0.0,0.0,0.0,0.0,0.0,2
115.0,-243.0,-26.0,-14.0,12.0,-20.0,32.0,-81.0,0.0,0.0,0.0,0.0,0.0,0.0,0.0,0.0,2
140.0,-156.0,19.0,4.0,-5.0,-181.0,-229.0,-56.0,0.0,0.0,0.0,0.0,0.0,0.0,0.0,0.0,2
-26.0,-28.0,-4.0,-26.0,0.0,-80.0,-164.0,-43.0,0.0,0.0,0.0,0.0,0.0,0.0,0.0,0.0,2
-102.0,182.0,45.0,-9.0,2.0,-56.0,39.0,-50.0,0.0,0.0,0.0,0.0,0.0,0.0,0.0,0.0,2
16.0,385.0,100.0,7.0,-72.0,-275.0,-22.0,49.0,0.0,0.0,0.0,0.0,0.0,0.0,0.0,0.0,2
25.0,222.0,-72.0,-74.0,-146.0,-231.0,-120.0,77.0,0.0,0.0,0.0,0.0,0.0,0.0,0.0,0.0,2
-54.0,-81.0,-210.0,-122.0,-110.0,-25.0,-81.0,-6.0,0.0,0.0,0.0,0.0,0.0,0.0,0.0,0.0,2
-87.0,-141.0,-117.0,-39.0,7.0,113.0,-28.0,-24.0,0.0,0.0,0.0,0.0,0.0,0.0,0.0,0.0,2
-144.0,-102.0,0.0,52.0,127.0,349.0,32.0,16.0,0.0,0.0,0.0,0.0,0.0,0.0,0.0,0.0,2
-137.0,-34.0,53.0,53.0,110.0,315.0,114.0,-27.0,0.0,0.0,0.0,0.0,0.0,0.0,0.0,0.0,2
-74.0,139.0,122.0,40.0,35.0,171.0,228.0,-38.0,0.0,0.0,0.0,0.0,0.0,0.0,0.0,0.0,2
-36.0,10.0,100.0,27.0,-25.0,36.0,226.0,-79.0,0.0,0.0,0.0,0.0,0.0,0.0,0.0,0.0,2
77.0,-115.0,53.0,31.0,-9.0,-85.0,119.0,-47.0,0.0,0.0,0.0,0.0,0.0,0.0,0.0,0.0,2
158.0,-4.0,9.0,20.0,10.0,-249.0,-259.0,-21.0,0.0,0.0,0.0,0.0,0.0,0.0,0.0,0.0,2
281.0,-11.0,-112.0,-48.0,-64.0,-498.0,-558.0,9.0,0.0,0.0,0.0,0.0,0.0,0.0,0.0,0.0,2
270.0,-10.0,-113.0,-29.0,-35.0,-324.0,-413.0,58.0,0.0,0.0,0.0,0.0,0.0,0.0,0.0,0.0,2
98.0,70.0,-2.0,25.0,45.0,92.0,84.0,135.0,0.0,0.0,0.0,0.0,0.0,0.0,0.0,0.0,2
-122.0,68.0,86.0,51.0,66.0,281.0,334.0,144.0,0.0,0.0,0.0,0.0,0.0,0.0,0.0,0.0,2
-269.0,-74.0,78.0,37.0,11.0,272.0,289.0,43.0,0.0,0.0,0.0,0.0,0.0,0.0,0.0,0.0,2
-347.0,-212.0,-8.0,-17.0,-39.0,184.0,209.0,-47.0,0.0,0.0,0.0,0.0,0.0,0.0,0.0,0.0,2
-329.0,-202.0,-42.0,-29.0,-26.0,118.0,120.0,-80.0,0.0,0.0,0.0,0.0,0.0,0.0,0.0,0.0,2
-102.0,23.0,-13.0,-22.0,-6.0,21.0,27.0,-91.0,0.0,0.0,0.0,0.0,0.0,0.0,0.0,0.0,2
272.0,267.0,-15.0,-45.0,-26.0,-95.0,-115.0,-70.0,0.0,0.0,0.0,0.0,0.0,0.0,0.0,0.0,2
342.0,219.0,-33.0,-54.0,-39.0,-141.0,-178.0,-64.0,0.0,0.0,0.0,0.0,0.0,0.0,0.0,0.0,2
219.0,65.0,-5.0,-16.0,-11.0,-108.0,-168.0,-65.0,0.0,0.0,0.0,0.0,0.0,0.0,0.0,0.0,2
-7.0,-134.0,-58.0,-37.0,-11.0,-95.0,-148.0,-33.0,0.0,0.0,0.0,0.0,0.0,0.0,0.0,0.0,2
-74.0,-136.0,-70.0,-37.0,-17.0,-79.0,-30.0,46.0,0.0,0.0,0.0,0.0,0.0,0.0,0.0,0.0,2
-3.0,57.0,30.0,29.0,10.0,-45.0,48.0,87.0,0.0,0.0,0.0,0.0,0.0,0.0,0.0,0.0,2
-39.0,71.0,96.0,94.0,53.0,56.0,103.0,71.0,0.0,0.0,0.0,0.0,0.0,0.0,0.0,0.0,2
-166.0,-46.0,57.0,67.0,51.0,124.0,148.0,47.0,0.0,0.0,0.0,0.0,0.0,0.0,0.0,0.0,2
-152.0,-69.0,19.0,13.0,11.0,60.0,109.0,31.0,0.0,0.0,0.0,0.0,0.0,0.0,0.0,0.0,2
38.0,-25.0,8.0,-17.0,-22.0,4.0,52.0,-18.0,0.0,0.0,0.0,0.0,0.0,0.0,0.0,0.0,2
123.0,6.0,5.0,-13.0,-31.0,-4.0,-33.0,-43.0,0.0,0.0,0.0,0.0,0.0,0.0,0.0,0.0,2
-3.0,18.0,-2.0,4.0,-2.0,63.0,-62.0,-44.0,0.0,0.0,0.0,0.0,0.0,0.0,0.0,0.0,2
-91.0,-45.0,-29.0,11.0,22.0,44.0,-100.0,-18.0,0.0,0.0,0.0,0.0,0.0,0.0,0.0,0.0,2
-78.0,-134.0,-82.0,-26.0,15.0,-14.0,-103.0,12.0,0.0,0.0,0.0,0.0,0.0,0.0,0.0,0.0,2
3.0,-116.0,-129.0,-75.0,-24.0,-124.0,-105.0,2.0,0.0,0.0,0.0,0.0,0.0,0.0,0.0,0.0,2
136.0,86.0,-92.0,-102.0,-85.0,-176.0,-110.0,-36.0,0.0,0.0,0.0,0.0,0.0,0.0,0.0,0.0,2
224.0,296.0,54.0,-21.0,-40.0,-91.0,46.0,-23.0,0.0,0.0,0.0,0.0,0.0,0.0,0.0,0.0,2
105.0,229.0,130.0,53.0,10.0,-24.0,123.0,10.0,0.0,0.0,0.0,0.0,0.0,0.0,0.0,0.0,2
86.0,257.0,129.0,52.0,9.0,17.0,63.0,-11.0,0.0,0.0,0.0,0.0,0.0,0.0,0.0,0.0,2
20.0,105.0,72.0,32.0,16.0,80.0,5.0,-14.0,0.0,0.0,0.0,0.0,0.0,0.0,0.0,0.0,2
-35.0,-117.0,-26.0,-8.0,3.0,86.0,-78.0,-32.0,0.0,0.0,0.0,0.0,0.0,0.0,0.0,0.0,2
-90.0,-262.0,-118.0,-31.0,-8.0,63.0,-68.0,-27.0,0.0,0.0,0.0,0.0,0.0,0.0,0.0,0.0,2
-329.0,-545.0,-94.0,45.0,51.0,127.0,180.0,89.0,0.0,0.0,0.0,0.0,0.0,0.0,0.0,0.0,2
-405.0,-504.0,15.0,116.0,96.0,119.0,201.0,131.0,0.0,0.0,0.0,0.0,0.0,0.0,0.0,0.0,2
-157.0,-82.0,81.0,83.0,58.0,10.0,84.0,54.0,0.0,0.0,0.0,0.0,0.0,0.0,0.0,0.0,2
58.0,246.0,90.0,29.0,14.0,-74.0,-13.0,-19.0,0.0,0.0,0.0,0.0,0.0,0.0,0.0,0.0,2
112.0,398.0,63.0,-31.0,-33.0,-105.0,-98.0,-76.0,0.0,0.0,0.0,0.0,0.0,0.0,0.0,0.0,2
174.0,201.0,-86.0,-142.0,-99.0,-111.0,-127.0,-109.0,0.0,0.0,0.0,0.0,0.0,0.0,0.0,0.0,2
286.0,-112.0,-219.0,-225.0,-130.0,-99.0,-138.0,-138.0,0.0,0.0,0.0,0.0,0.0,0.0,0.0,0.0,2
245.0,-121.0,-163.0,-162.0,-83.0,-52.0,-28.0,73.0,0.0,0.0,0.0,0.0,0.0,0.0,0.0,0.0,2
23.0,21.0,-68.0,-79.0,-36.0,-45.0,-56.0,60.0,0.0,0.0,0.0,0.0,0.0,0.0,0.0,0.0,2
38.0,476.0,166.0,77.0,26.0,16.0,-104.0,-129.0,0.0,0.0,0.0,0.0,0.0,0.0,0.0,0.0,2
-127.0,307.0,177.0,129.0,33.0,36.0,-28.0,-18.0,0.0,0.0,0.0,0.0,0.0,0.0,0.0,0.0,2
-223.0,-83.0,98.0,133.0,65.0,115.0,148.0,125.0,0.0,0.0,0.0,0.0,0.0,0.0,0.0,0.0,2
-62.0,-150.0,46.0,101.0,55.0,83.0,117.0,99.0,0.0,0.0,0.0,0.0,0.0,0.0,0.0,0.0,2
-20.0,-158.0,4.0,56.0,27.0,56.0,22.0,28.0,0.0,0.0,0.0,0.0,0.0,0.0,0.0,0.0,2
-52.0,-270.0,-53.0,31.0,47.0,119.0,65.0,18.0,0.0,0.0,0.0,0.0,0.0,0.0,0.0,0.0,2
23.0,-235.0,-74.0,-7.0,38.0,10.0,88.0,-7.0,0.0,0.0,0.0,0.0,0.0,0.0,0.0,0.0,2
97.0,-104.0,-84.0,-53.0,-22.0,-157.0,-2.0,-47.0,0.0,0.0,0.0,0.0,0.0,0.0,0.0,0.0,2
150.0,62.0,-74.0,-76.0,-40.0,-121.0,-41.0,-48.0,0.0,0.0,0.0,0.0,0.0,0.0,0.0,0.0,2
80.0,163.0,-8.0,-68.0,-65.0,-145.0,-182.0,-59.0,0.0,0.0,0.0,0.0,0.0,0.0,0.0,0.0,2
-145.0,54.0,42.0,-30.0,-57.0,-80.0,-156.0,-6.0,0.0,0.0,0.0,0.0,0.0,0.0,0.0,0.0,2
-180.0,-44.0,-7.0,-15.0,-10.0,78.0,-17.0,10.0,0.0,0.0,0.0,0.0,0.0,0.0,0.0,0.0,2
-77.0,80.0,6.0,4.0,32.0,96.0,144.0,16.0,0.0,0.0,0.0,0.0,0.0,0.0,0.0,0.0,2
-133.0,200.0,77.0,34.0,16.0,-32.0,147.0,-5.0,0.0,0.0,0.0,0.0,0.0,0.0,0.0,0.0,2
-29.0,38.0,79.0,45.0,7.0,64.0,51.0,23.0,0.0,0.0,0.0,0.0,0.0,0.0,0.0,0.0,2
280.0,-56.0,11.0,-12.0,-38.0,62.0,-142.0,-7.0,0.0,0.0,0.0,0.0,0.0,0.0,0.0,0.0,2
171.0,-147.0,-68.0,-63.0,-66.0,29.0,-179.0,-125.0,0.0,0.0,0.0,0.0,0.0,0.0,0.0,0.0,2
7.0,-229.0,-105.0,-29.0,-3.0,53.0,35.0,-117.0,0.0,0.0,0.0,0.0,0.0,0.0,0.0,0.0,2
32.0,-42.0,-23.0,54.0,64.0,-63.0,93.0,43.0,0.0,0.0,0.0,0.0,0.0,0.0,0.0,0.0,2
20.0,280.0,103.0,79.0,67.0,-100.0,79.0,165.0,0.0,0.0,0.0,0.0,0.0,0.0,0.0,0.0,2
-55.0,430.0,101.0,-1.0,-11.0,-179.0,-16.0,108.0,0.0,0.0,0.0,0.0,0.0,0.0,0.0,0.0,2
-193.0,47.0,-41.0,-80.0,-60.0,-92.0,-12.0,33.0,0.0,0.0,0.0,0.0,0.0,0.0,0.0,0.0,2
-139.0,-314.0,-93.0,-46.0,-14.0,213.0,98.0,9.0,0.0,0.0,0.0,0.0,0.0,0.0,0.0,0.0,2
81.0,-300.0,-37.0,41.0,58.0,349.0,105.0,-50.0,0.0,0.0,0.0,0.0,0.0,0.0,0.0,0.0,2
29.0,-346.0,-75.0,37.0,59.0,180.0,-75.0,-26.0,0.0,0.0,0.0,0.0,0.0,0.0,0.0,0.0,2
-51.0,-156.0,-24.0,52.0,74.0,77.0,-56.0,6.0,0.0,0.0,0.0,0.0,0.0,0.0,0.0,0.0,2
8.0,201.0,59.0,28.0,-1.0,-207.0,-154.0,-72.0,0.0,0.0,0.0,0.0,0.0,0.0,0.0,0.0,2
78.0,366.0,61.0,-41.0,-124.0,-394.0,-308.0,-136.0,0.0,0.0,0.0,0.0,0.0,0.0,0.0,0.0,2
75.0,263.0,14.0,-78.0,-148.0,-341.0,-126.0,-59.0,0.0,0.0,0.0,0.0,0.0,0.0,0.0,0.0,2
57.0,125.0,-32.0,-67.0,-81.0,-190.0,130.0,44.0,0.0,0.0,0.0,0.0,0.0,0.0,0.0,0.0,2
134.0,13.0,-58.0,-70.0,-28.0,25.0,299.0,146.0,0.0,0.0,0.0,0.0,0.0,0.0,0.0,0.0,2
103.0,-158.0,-36.0,-27.0,22.0,208.0,231.0,73.0,0.0,0.0,0.0,0.0,0.0,0.0,0.0,0.0,2
-119.0,-221.0,44.0,58.0,95.0,331.0,84.0,3.0,0.0,0.0,0.0,0.0,0.0,0.0,0.0,0.0,2
-252.0,-120.0,74.0,84.0,113.0,257.0,46.0,-84.0,0.0,0.0,0.0,0.0,0.0,0.0,0.0,0.0,2
-372.0,-65.0,46.0,46.0,42.0,40.0,-141.0,-116.0,0.0,0.0,0.0,0.0,0.0,0.0,0.0,0.0,2
-298.0,-76.0,18.0,44.0,20.0,-42.0,-214.0,-21.0,0.0,0.0,0.0,0.0,0.0,0.0,0.0,0.0,2
30.0,26.0,22.0,52.0,24.0,-33.0,-124.0,-9.0,0.0,0.0,0.0,0.0,0.0,0.0,0.0,0.0,2
388.0,149.0,-20.0,-11.0,-21.0,-52.0,4.0,23.0,0.0,0.0,0.0,0.0,0.0,0.0,0.0,0.0,2
381.0,112.0,-41.0,-47.0,-25.0,-54.0,117.0,35.0,0.0,0.0,0.0,0.0,0.0,0.0,0.0,0.0,2
108.0,-74.0,-59.0,-48.0,-24.0,-48.0,125.0,129.0,0.0,0.0,0.0,0.0,0.0,0.0,0.0,0.0,2
-55.0,-63.0,-72.0,-58.0,-52.0,-56.0,25.0,112.0,0.0,0.0,0.0,0.0,0.0,0.0,0.0,0.0,2
88.0,204.0,22.0,0.0,-33.0,-35.0,-145.0,-26.0,0.0,0.0,0.0,0.0,0.0,0.0,0.0,0.0,2
142.0,223.0,41.0,2.0,-60.0,-90.0,-185.0,-114.0,0.0,0.0,0.0,0.0,0.0,0.0,0.0,0.0,2
55.0,14.0,-23.0,-36.0,-41.0,-67.0,-31.0,-83.0,0.0,0.0,0.0,0.0,0.0,0.0,0.0,0.0,2
-114.0,-115.0,-16.0,-8.0,-1.0,-145.0,32.0,-45.0,0.0,0.0,0.0,0.0,0.0,0.0,0.0,0.0,2
-405.0,-234.0,-2.0,21.0,7.0,-135.0,42.0,-41.0,0.0,0.0,0.0,0.0,0.0,0.0,0.0,0.0,2
-371.0,-282.0,-52.0,-37.0,-18.0,-39.0,-41.0,-121.0,0.0,0.0,0.0,0.0,0.0,0.0,0.0,0.0,2
42.0,-6.0,52.0,45.0,55.0,139.0,33.0,3.0,0.0,0.0,0.0,0.0,0.0,0.0,0.0,0.0,2
138.0,48.0,33.0,49.0,80.0,309.0,139.0,151.0,0.0,0.0,0.0,0.0,0.0,0.0,0.0,0.0,2
188.0,121.0,-22.0,-25.0,29.0,349.0,164.0,186.0,0.0,0.0,0.0,0.0,0.0,0.0,0.0,0.0,2
157.0,132.0,37.0,-9.0,18.0,232.0,136.0,83.0,0.0,0.0,0.0,0.0,0.0,0.0,0.0,0.0,2
-120.0,-147.0,2.0,15.0,20.0,89.0,43.0,0.0,0.0,0.0,0.0,0.0,0.0,0.0,0.0,0.0,2
-133.0,30.0,10.0,28.0,14.0,-69.0,-90.0,-74.0,0.0,0.0,0.0,0.0,0.0,0.0,0.0,0.0,2
43.0,139.0,-27.0,-36.0,-49.0,-229.0,-145.0,-99.0,0.0,0.0,0.0,0.0,0.0,0.0,0.0,0.0,2
79.0,113.0,-37.0,-56.0,-76.0,-291.0,-50.0,35.0,0.0,0.0,0.0,0.0,0.0,0.0,0.0,0.0,2
37.0,-36.0,3.0,-4.0,-62.0,-296.0,-9.0,93.0,0.0,0.0,0.0,0.0,0.0,0.0,0.0,0.0,2
13.0,4.0,93.0,75.0,12.0,-145.0,-151.0,-268.0,0.0,0.0,0.0,0.0,0.0,0.0,0.0,0.0,2
-76.0,-46.0,32.0,37.0,24.0,-54.0,-184.0,-178.0,0.0,0.0,0.0,0.0,0.0,0.0,0.0,0.0,2
-119.0,-242.0,-68.0,-41.0,-3.0,-6.0,-138.0,-108.0,0.0,0.0,0.0,0.0,0.0,0.0,0.0,0.0,2
-80.0,-29.0,-53.0,-49.0,-3.0,112.0,50.0,-6.0,0.0,0.0,0.0,0.0,0.0,0.0,0.0,0.0,2
-47.0,72.0,-37.0,-52.0,-27.0,149.0,175.0,133.0,0.0,0.0,0.0,0.0,0.0,0.0,0.0,0.0,2
267.0,80.0,-15.0,-25.0,-8.0,185.0,303.0,332.0,0.0,0.0,0.0,0.0,0.0,0.0,0.0,0.0,2
245.0,19.0,23.0,13.0,24.0,214.0,212.0,253.0,0.0,0.0,0.0,0.0,0.0,0.0,0.0,0.0,2
-11.0,-102.0,1.0,21.0,8.0,66.0,-70.0,-33.0,0.0,0.0,0.0,0.0,0.0,0.0,0.0,0.0,2
