CH1,CH2,CH3,CH4,CH5,CH6,CH7,CH8,CH9,CH10,CH11,CH12,CH13,CH14,CH15,CH16,label
1911.0,-255.0,-107.0,2035.0,4338.0,-4765.0,-2913.0,-2172.0,0.0,0.0,0.0,0.0,0.0,0.0,0.0,0.0,0
-624.0,96.0,47.0,-653.0,-1383.0,1531.0,943.0,688.0,0.0,0.0,0.0,0.0,0.0,0.0,0.0,0.0,0
-1264.0,174.0,73.0,-1340.0,-2853.0,3137.0,1921.0,1425.0,0.0,0.0,0.0,0.0,0.0,0.0,0.0,0.0,0
-1065.0,130.0,38.0,-1135.0,-2422.0,2642.0,1601.0,1208.0,0.0,0.0,0.0,0.0,0.0,0.0,0.0,0.0,0
-604.0,55.0,5.0,-660.0,-1400.0,1514.0,910.0,699.0,0.0,0.0,0.0,0.0,0.0,0.0,0.0,0.0,0
-79.0,-14.0,-5.0,-92.0,-200.0,207.0,120.0,101.0,0.0,0.0,0.0,0.0,0.0,0.0,0.0,0.0,0
454.0,-76.0,-23.0,461.0,970.0,-1079.0,-659.0,-484.0,0.0,0.0,0.0,0.0,0.0,0.0,0.0,0.0,0
777.0,-97.0,-44.0,795.0,1700.0,-1886.0,-1144.0,-858.0,0.0,0.0,0.0,0.0,0.0,0.0,0.0,0.0,0
727.0,-79.0,-27.0,768.0,1646.0,-1811.0,-1094.0,-837.0,0.0,0.0,0.0,0.0,0.0,0.0,0.0,0.0,0
404.0,-36.0,0.0,453.0,979.0,-1071.0,-641.0,-501.0,0.0,0.0,0.0,0.0,0.0,0.0,0.0,0.0,0
95.0,-2.0,-4.0,129.0,286.0,-310.0,-185.0,-147.0,0.0,0.0,0.0,0.0,0.0,0.0,0.0,0.0,0
-45.0,7.0,-3.0,-18.0,-36.0,47.0,24.0,17.0,0.0,0.0,0.0,0.0,0.0,0.0,0.0,0.0,0
-84.0,4.0,12.0,-57.0,-123.0,157.0,95.0,63.0,0.0,0.0,0.0,0.0,0.0,0.0,0.0,0.0,0
-166.0,21.0,28.0,-146.0,-326.0,370.0,223.0,159.0,0.0,0.0,0.0,0.0,0.0,0.0,0.0,0.0,0
-285.0,36.0,22.0,-293.0,-638.0,691.0,419.0,310.0,0.0,0.0,0.0,0.0,0.0,0.0,0.0,0.0,0
-315.0,7.0,7.0,-333.0,-711.0,760.0,466.0,351.0,0.0,0.0,0.0,0.0,0.0,0.0,0.0,0.0,0
-182.0,-5.0,-8.0,-193.0,-391.0,422.0,259.0,194.0,0.0,0.0,0.0,0.0,0.0,0.0,0.0,0.0,0
22.0,-15.0,-28.0,-2.0,21.0,-41.0,-27.0,-9.0,0.0,0.0,0.0,0.0,0.0,0.0,0.0,0.0,0
106.0,-7.0,-43.0,63.0,171.0,-205.0,-137.0,-82.0,0.0,0.0,0.0,0.0,0.0,0.0,0.0,0.0,0
34.0,15.0,-21.0,4.0,36.0,-56.0,-43.0,-26.0,0.0,0.0,0.0,0.0,0.0,0.0,0.0,0.0,0
25.0,32.0,-2.0,-32.0,-51.0,50.0,17.0,21.0,0.0,0.0,0.0,0.0,0.0,0.0,0.0,0.0,0
111.0,18.0,2.0,47.0,90.0,-108.0,-85.0,-45.0,0.0,0.0,0.0,0.0,0.0,0.0,0.0,0.0,0
148.0,-13.0,2.0,141.0,283.0,-318.0,-199.0,-142.0,0.0,0.0,0.0,0.0,0.0,0.0,0.0,0.0,0
82.0,-34.0,16.0,125.0,237.0,-260.0,-151.0,-113.0,0.0,0.0,0.0,0.0,0.0,0.0,0.0,0.0,0
-44.0,-51.0,10.0,5.0,-28.0,32.0,19.0,19.0,0.0,0.0,0.0,0.0,0.0,0.0,0.0,0.0,0
-122.0,-42.0,5.0,-83.0,-193.0,218.0,129.0,95.0,0.0,0.0,0.0,0.0,0.0,0.0,0.0,0.0,0
-83.0,0.0,1.0,-46.0,-97.0,108.0,67.0,36.0,0.0,0.0,0.0,0.0,0.0,0.0,0.0,0.0,0
15.0,24.0,2.0,37.0,84.0,-105.0,-49.0,-60.0,0.0,0.0,0.0,0.0,0.0,0.0,0.0,0.0,0
17.0,22.0,10.0,41.0,85.0,-106.0,-43.0,-62.0,0.0,0.0,0.0,0.0,0.0,0.0,0.0,0.0,0
-55.0,0.0,2.0,-51.0,-96.0,84.0,71.0,33.0,0.0,0.0,0.0,0.0,0.0,0.0,0.0,0.0,0
-88.0,-15.0,-17.0,-103.0,-188.0,195.0,127.0,84.0,0.0,0.0,0.0,0.0,0.0,0.0,0.0,0.0,0
-22.0,-11.0,-26.0,-37.0,-52.0,62.0,32.0,27.0,0.0,0.0,0.0,0.0,0.0,0.0,0.0,0.0,0
64.0,7.0,-17.0,51.0,135.0,-141.0,-96.0,-71.0,0.0,0.0,0.0,0.0,0.0,0.0,0.0,0.0,0
60.0,16.0,-6.0,51.0,141.0,-145.0,-96.0,-75.0,0.0,0.0,0.0,0.0,0.0,0.0,0.0,0.0,0
-16.0,14.0,9.0,-23.0,-35.0,37.0,20.0,9.0,0.0,0.0,0.0,0.0,0.0,0.0,0.0,0.0,0
-62.0,28.0,38.0,-58.0,-134.0,154.0,98.0,61.0,0.0,0.0,0.0,0.0,0.0,0.0,0.0,0.0,0
-8.0,38.0,52.0,-4.0,-31.0,41.0,36.0,17.0,0.0,0.0,0.0,0.0,0.0,0.0,0.0,0.0,0
58.0,-7.0,8.0,60.0,117.0,-131.0,-88.0,-55.0,0.0,0.0,0.0,0.0,0.0,0.0,0.0,0.0,0
51.0,-46.0,-35.0,53.0,109.0,-134.0,-104.0,-52.0,0.0,0.0,0.0,0.0,0.0,0.0,0.0,0.0,0
-7.0,-42.0,-40.0,-21.0,-55.0,28.0,5.0,26.0,0.0,0.0,0.0,0.0,0.0,0.0,0.0,0.0,0
-30.0,-18.0,-31.0,-67.0,-140.0,130.0,69.0,84.0,0.0,0.0,0.0,0.0,0.0,0.0,0.0,0.0,0
12.0,-11.0,-27.0,-16.0,-45.0,36.0,12.0,29.0,0.0,0.0,0.0,0.0,0.0,0.0,0.0,0.0,0
57.0,-16.0,-14.0,51.0,90.0,-109.0,-75.0,-55.0,0.0,0.0,0.0,0.0,0.0,0.0,0.0,0.0,0
47.0,-4.0,6.0,53.0,92.0,-115.0,-69.0,-55.0,0.0,0.0,0.0,0.0,0.0,0.0,0.0,0.0,0
-15.0,11.0,11.0,-11.0,-46.0,35.0,19.0,20.0,0.0,0.0,0.0,0.0,0.0,0.0,0.0,0.0,0
-70.0,9.0,12.0,-54.0,-125.0,127.0,85.0,61.0,0.0,0.0,0.0,0.0,0.0,0.0,0.0,0.0,0
-43.0,2.0,5.0,-19.0,-40.0,39.0,36.0,14.0,0.0,0.0,0.0,0.0,0.0,0.0,0.0,0.0,0
6.0,-16.0,-6.0,30.0,98.0,-104.0,-56.0,-50.0,0.0,0.0,0.0,0.0,0.0,0.0,0.0,0.0,0
0.0,-20.0,-4.0,24.0,103.0,-98.0,-49.0,-61.0,0.0,0.0,0.0,0.0,0.0,0.0,0.0,0.0,0
-36.0,6.0,12.0,-39.0,-37.0,46.0,33.0,-3.0,0.0,0.0,0.0,0.0,0.0,0.0,0.0,0.0,0
-55.0,16.0,9.0,-59.0,-113.0,123.0,84.0,40.0,0.0,0.0,0.0,0.0,0.0,0.0,0.0,0.0,0
-31.0,0.0,4.0,-18.0,-33.0,38.0,32.0,11.0,0.0,0.0,0.0,0.0,0.0,0.0,0.0,0.0,0
19.0,-9.0,5.0,46.0,85.0,-85.0,-48.0,-42.0,0.0,0.0,0.0,0.0,0.0,0.0,0.0,0.0,0
38.0,5.0,8.0,53.0,85.0,-84.0,-55.0,-46.0,0.0,0.0,0.0,0.0,0.0,0.0,0.0,0.0,0
8.0,12.0,14.0,1.0,-24.0,39.0,19.0,16.0,0.0,0.0,0.0,0.0,0.0,0.0,0.0,0.0,0
-39.0,-6.0,-1.0,-43.0,-102.0,101.0,57.0,57.0,0.0,0.0,0.0,0.0,0.0,0.0,0.0,0.0,0
-23.0,2.0,-11.0,-21.0,-44.0,25.0,3.0,25.0,0.0,0.0,0.0,0.0,0.0,0.0,0.0,0.0,0
42.0,24.0,-18.0,18.0,64.0,-88.0,-67.0,-38.0,0.0,0.0,0.0,0.0,0.0,0.0,0.0,0.0,0
70.0,16.0,-21.0,24.0,70.0,-100.0,-75.0,-48.0,0.0,0.0,0.0,0.0,0.0,0.0,0.0,0.0,0
26.0,18.0,-18.0,-27.0,-32.0,16.0,2.0,7.0,0.0,0.0,0.0,0.0,0.0,0.0,0.0,0.0,0
-12.0,6.0,-7.0,-52.0,-96.0,92.0,58.0,46.0,0.0,0.0,0.0,0.0,0.0,0.0,0.0,0.0,0
23.0,-21.0,-20.0,-21.0,-34.0,20.0,1.0,23.0,0.0,0.0,0.0,0.0,0.0,0.0,0.0,0.0,0
61.0,-23.0,-21.0,34.0,58.0,-83.0,-67.0,-26.0,0.0,0.0,0.0,0.0,0.0,0.0,0.0,0.0,0
25.0,-42.0,-4.0,40.0,67.0,-75.0,-55.0,-23.0,0.0,0.0,0.0,0.0,0.0,0.0,0.0,0.0,0
-63.0,-68.0,-11.0,-14.0,-27.0,17.0,11.0,15.0,0.0,0.0,0.0,0.0,0.0,0.0,0.0,0.0,0
-121.0,-70.0,-10.0,-47.0,-84.0,83.0,66.0,26.0,0.0,0.0,0.0,0.0,0.0,0.0,0.0,0.0,0
-81.0,-33.0,11.0,-13.0,-21.0,38.0,35.0,8.0,0.0,0.0,0.0,0.0,0.0,0.0,0.0,0.0,0
-9.0,7.0,29.0,42.0,72.0,-57.0,-21.0,-36.0,0.0,0.0,0.0,0.0,0.0,0.0,0.0,0.0,0
15.0,46.0,35.0,51.0,73.0,-53.0,-21.0,-41.0,0.0,0.0,0.0,0.0,0.0,0.0,0.0,0.0,0
5.0,74.0,32.0,1.0,-16.0,30.0,31.0,-8.0,0.0,0.0,0.0,0.0,0.0,0.0,0.0,0.0,0
2.0,62.0,9.0,-41.0,-75.0,79.0,51.0,26.0,0.0,0.0,0.0,0.0,0.0,0.0,0.0,0.0,0
22.0,37.0,-11.0,-22.0,-22.0,19.0,6.0,-1.0,0.0,0.0,0.0,0.0,0.0,0.0,0.0,0.0,0
41.0,7.0,-15.0,14.0,57.0,-67.0,-39.0,-27.0,0.0,0.0,0.0,0.0,0.0,0.0,0.0,0.0,0
28.0,-11.0,-24.0,8.0,57.0,-64.0,-33.0,-25.0,0.0,0.0,0.0,0.0,0.0,0.0,0.0,0.0,0
-13.0,-11.0,-14.0,-20.0,-26.0,26.0,10.0,12.0,0.0,0.0,0.0,0.0,0.0,0.0,0.0,0.0,0
-31.0,-13.0,6.0,-31.0,-72.0,77.0,35.0,31.0,0.0,0.0,0.0,0.0,0.0,0.0,0.0,0.0,0
-21.0,-24.0,4.0,-10.0,-32.0,18.0,12.0,3.0,0.0,0.0,0.0,0.0,0.0,0.0,0.0,0.0,0
6.0,-27.0,-1.0,23.0,39.0,-64.0,-31.0,-27.0,0.0,0.0,0.0,0.0,0.0,0.0,0.0,0.0,0
22.0,-7.0,-8.0,15.0,37.0,-67.0,-50.0,-20.0,0.0,0.0,0.0,0.0,0.0,0.0,0.0,0.0,0
12.0,3.0,-21.0,-21.0,-24.0,5.0,-9.0,11.0,0.0,0.0,0.0,0.0,0.0,0.0,0.0,0.0,0
-3.0,-1.0,-21.0,-36.0,-60.0,52.0,14.0,33.0,0.0,0.0,0.0,0.0,0.0,0.0,0.0,0.0,0
4.0,-18.0,-17.0,-7.0,-21.0,11.0,-20.0,12.0,0.0,0.0,0.0,0.0,0.0,0.0,0.0,0.0,0
21.0,-49.0,-22.0,23.0,47.0,-60.0,-50.0,-15.0,0.0,0.0,0.0,0.0,0.0,0.0,0.0,0.0,0
21.0,-28.0,-9.0,27.0,53.0,-57.0,-30.0,-16.0,0.0,0.0,0.0,0.0,0.0,0.0,0.0,0.0,0
-12.0,-4.0,-4.0,-4.0,-8.0,15.0,16.0,7.0,0.0,0.0,0.0,0.0,0.0,0.0,0.0,0.0,0
-44.0,7.0,4.0,-17.0,-47.0,63.0,47.0,12.0,0.0,0.0,0.0,0.0,0.0,0.0,0.0,0.0,0
-35.0,1.0,10.0,-2.0,-16.0,27.0,23.0,0.0,0.0,0.0,0.0,0.0,0.0,0.0,0.0,0.0,0
38.0,36.0,14.0,22.0,45.0,-45.0,-10.0,-28.0,0.0,0.0,0.0,0.0,0.0,0.0,0.0,0.0,0
38.0,51.0,31.0,22.0,37.0,-42.0,-3.0,-32.0,0.0,0.0,0.0,0.0,0.0,0.0,0.0,0.0,0
-16.0,45.0,41.0,-15.0,-27.0,21.0,26.0,-3.0,0.0,0.0,0.0,0.0,0.0,0.0,0.0,0.0,0
-42.0,26.0,23.0,-37.0,-56.0,54.0,31.0,17.0,0.0,0.0,0.0,0.0,0.0,0.0,0.0,0.0,0
-41.0,-28.0,-4.0,-13.0,-23.0,19.0,3.0,-1.0,0.0,0.0,0.0,0.0,0.0,0.0,0.0,0.0,0
-30.0,-57.0,-22.0,10.0,26.0,-42.0,-30.0,-23.0,0.0,0.0,0.0,0.0,0.0,0.0,0.0,0.0,0
-19.0,-50.0,-28.0,-5.0,30.0,-46.0,-22.0,-20.0,0.0,0.0,0.0,0.0,0.0,0.0,0.0,0.0,0
-22.0,-18.0,-10.0,-17.0,-10.0,12.0,8.0,6.0,0.0,0.0,0.0,0.0,0.0,0.0,0.0,0.0,0
-10.0,23.0,10.0,-8.0,-31.0,47.0,21.0,19.0,0.0,0.0,0.0,0.0,0.0,0.0,0.0,0.0,0
25.0,21.0,-2.0,-3.0,-12.0,12.0,2.0,0.0,0.0,0.0,0.0,0.0,0.0,0.0,0.0,0.0,0
43.0,13.0,-18.0,6.0,28.0,-41.0,-31.0,-11.0,0.0,0.0,0.0,0.0,0.0,0.0,0.0,0.0,0
50.0,-7.0,-31.0,7.0,28.0,-44.0,-41.0,-13.0,0.0,0.0,0.0,0.0,0.0,0.0,0.0,0.0,0
26.0,-16.0,-33.0,-7.0,-16.0,-1.0,-8.0,10.0,0.0,0.0,0.0,0.0,0.0,0.0,0.0,0.0,0
-4.0,-14.0,-29.0,-33.0,-47.0,36.0,10.0,22.0,0.0,0.0,0.0,0.0,0.0,0.0,0.0,0.0,0
11.0,-4.0,-14.0,-14.0,-22.0,5.0,-10.0,4.0,0.0,0.0,0.0,0.0,0.0,0.0,0.0,0.0,0
15.0,4.0,6.0,16.0,23.0,-37.0,-28.0,-16.0,0.0,0.0,0.0,0.0,0.0,0.0,0.0,0.0,0
-4.0,4.0,11.0,25.0,26.0,-42.0,-30.0,-19.0,0.0,0.0,0.0,0.0,0.0,0.0,0.0,0.0,0
-21.0,-17.0,11.0,6.0,-12.0,1.0,-6.0,10.0,0.0,0.0,0.0,0.0,0.0,0.0,0.0,0.0,0
-24.0,-15.0,18.0,-4.0,-28.0,38.0,30.0,15.0,0.0,0.0,0.0,0.0,0.0,0.0,0.0,0.0,0
-4.0,-9.0,22.0,1.0,-8.0,11.0,17.0,-2.0,0.0,0.0,0.0,0.0,0.0,0.0,0.0,0.0,0
3.0,-9.0,12.0,18.0,34.0,-27.0,-6.0,-18.0,0.0,0.0,0.0,0.0,0.0,0.0,0.0,0.0,0
-27.0,-14.0,10.0,8.0,29.0,-25.0,8.0,-23.0,0.0,0.0,0.0,0.0,0.0,0.0,0.0,0.0,0
-46.0,10.0,15.0,-19.0,-13.0,25.0,29.0,-5.0,0.0,0.0,0.0,0.0,0.0,0.0,0.0,0.0,0
-27.0,36.0,13.0,-23.0,-33.0,55.0,28.0,0.0,0.0,0.0,0.0,0.0,0.0,0.0,0.0,0.0,0
-8.0,22.0,-6.0,-15.0,-13.0,13.0,8.0,-11.0,0.0,0.0,0.0,0.0,0.0,0.0,0.0,0.0,0
-3.0,6.0,-13.0,-1.0,19.0,-35.0,-14.0,-19.0,0.0,0.0,0.0,0.0,0.0,0.0,0.0,0.0,0
-1.0,-2.0,-14.0,-6.0,17.0,-29.0,-18.0,-15.0,0.0,0.0,0.0,0.0,0.0,0.0,0.0,0.0,0
-2.0,-4.0,-19.0,-20.0,-15.0,6.0,-9.0,12.0,0.0,0.0,0.0,0.0,0.0,0.0,0.0,0.0,0
-11.0,-10.0,-17.0,-16.0,-31.0,30.0,5.0,16.0,0.0,0.0,0.0,0.0,0.0,0.0,0.0,0.0,0
-1.0,-20.0,-16.0,-1.0,-13.0,2.0,-1.0,-3.0,0.0,0.0,0.0,0.0,0.0,0.0,0.0,0.0,0
9.0,-18.0,-8.0,18.0,24.0,-32.0,-17.0,-13.0,0.0,0.0,0.0,0.0,0.0,0.0,0.0,0.0,0
29.0,4.0,7.0,25.0,30.0,-27.0,-27.0,2.0,0.0,0.0,0.0,0.0,0.0,0.0,0.0,0.0,0
44.0,30.0,18.0,12.0,-9.0,2.0,-12.0,14.0,0.0,0.0,0.0,0.0,0.0,0.0,0.0,0.0,0
25.0,0.0,12.0,-3.0,-30.0,28.0,1.0,20.0,0.0,0.0,0.0,0.0,0.0,0.0,0.0,0.0,0
11.0,-26.0,-11.0,-5.0,-16.0,2.0,-6.0,8.0,0.0,0.0,0.0,0.0,0.0,0.0,0.0,0.0,0
4.0,-30.0,-24.0,-7.0,16.0,-26.0,-23.0,-17.0,0.0,0.0,0.0,0.0,0.0,0.0,0.0,0.0,0
-1.0,-14.0,-26.0,-13.0,18.0,-31.0,-21.0,-14.0,0.0,0.0,0.0,0.0,0.0,0.0,0.0,0.0,0
2.0,-4.0,-27.0,-20.0,-17.0,-7.0,-9.0,1.0,0.0,0.0,0.0,0.0,0.0,0.0,0.0,0.0,0
-18.0,2.0,-3.0,-18.0,-37.0,19.0,18.0,4.0,0.0,0.0,0.0,0.0,0.0,0.0,0.0,0.0,0
-25.0,-17.0,1.0,2.0,-10.0,5.0,12.0,-5.0,0.0,0.0,0.0,0.0,0.0,0.0,0.0,0.0,0
-24.0,-23.0,5.0,13.0,15.0,-15.0,-4.0,-18.0,0.0,0.0,0.0,0.0,0.0,0.0,0.0,0.0,0
-14.0,2.0,17.0,14.0,22.0,-7.0,10.0,-20.0,0.0,0.0,0.0,0.0,0.0,0.0,0.0,0.0,0
-28.0,12.0,18.0,-7.0,-3.0,18.0,25.0,-7.0,0.0,0.0,0.0,0.0,0.0,0.0,0.0,0.0,0
-39.0,28.0,11.0,-21.0,-19.0,30.0,16.0,2.0,0.0,0.0,0.0,0.0,0.0,0.0,0.0,0.0,0
-16.0,38.0,17.0,-3.0,-3.0,7.0,8.0,4.0,0.0,0.0,0.0,0.0,0.0,0.0,0.0,0.0,0
24.0,37.0,17.0,21.0,24.0,-18.0,-6.0,-7.0,0.0,0.0,0.0,0.0,0.0,0.0,0.0,0.0,0
22.0,10.0,9.0,20.0,17.0,-17.0,-9.0,-8.0,0.0,0.0,0.0,0.0,0.0,0.0,0.0,0.0,0
-18.0,-32.0,-6.0,-8.0,-11.0,2.0,4.0,-3.0,0.0,0.0,0.0,0.0,0.0,0.0,0.0,0.0,0
-36.0,-39.0,-7.0,-23.0,-28.0,20.0,15.0,-1.0,0.0,0.0,0.0,0.0,0.0,0.0,0.0,0.0,0
-5.0,-20.0,-7.0,-20.0,-13.0,4.0,-3.0,-2.0,0.0,0.0,0.0,0.0,0.0,0.0,0.0,0.0,0
24.0,-20.0,-31.0,-7.0,4.0,-27.0,-25.0,-9.0,0.0,0.0,0.0,0.0,0.0,0.0,0.0,0.0,0
36.0,-31.0,-46.0,4.0,-2.0,-33.0,-38.0,-4.0,0.0,0.0,0.0,0.0,0.0,0.0,0.0,0.0,0
28.0,-13.0,-31.0,-1.0,-2.0,-3.0,-24.0,14.0,0.0,0.0,0.0,0.0,0.0,0.0,0.0,0.0,0
16.0,-2.0,-17.0,0.0,-11.0,14.0,-5.0,17.0,0.0,0.0,0.0,0.0,0.0,0.0,0.0,0.0,0
8.0,4.0,-7.0,4.0,-4.0,2.0,-9.0,7.0,0.0,0.0,0.0,0.0,0.0,0.0,0.0,0.0,0
8.0,46.0,32.0,20.0,16.0,-17.0,-10.0,-9.0,0.0,0.0,0.0,0.0,0.0,0.0,0.0,0.0,0
10.0,55.0,27.0,14.0,13.0,-21.0,-8.0,-15.0,0.0,0.0,0.0,0.0,0.0,0.0,0.0,0.0,0
11.0,22.0,-9.0,-20.0,-20.0,-3.0,-2.0,8.0,0.0,0.0,0.0,0.0,0.0,0.0,0.0,0.0,0
-2.0,-15.0,-14.0,-25.0,-24.0,14.0,10.0,7.0,0.0,0.0,0.0,0.0,0.0,0.0,0.0,0.0,0
-21.0,-51.0,-9.0,-18.0,-2.0,0.0,10.0,-3.0,0.0,0.0,0.0,0.0,0.0,0.0,0.0,0.0,0
-33.0,-64.0,0.0,-6.0,16.0,-15.0,8.0,-8.0,0.0,0.0,0.0,0.0,0.0,0.0,0.0,0.0,0
-59.0,-42.0,10.0,-1.0,17.0,-3.0,15.0,-15.0,0.0,0.0,0.0,0.0,0.0,0.0,0.0,0.0,0
-50.0,-6.0,16.0,-2.0,-1.0,18.0,19.0,-15.0,0.0,0.0,0.0,0.0,0.0,0.0,0.0,0.0,0
-23.0,15.0,4.0,-5.0,-11.0,23.0,13.0,-5.0,0.0,0.0,0.0,0.0,0.0,0.0,0.0,0.0,0
-2.0,37.0,13.0,2.0,-4.0,10.0,5.0,-4.0,0.0,0.0,0.0,0.0,0.0,0.0,0.0,0.0,0
14.0,36.0,8.0,11.0,12.0,-11.0,-3.0,-10.0,0.0,0.0,0.0,0.0,0.0,0.0,0.0,0.0,0
30.0,11.0,-14.0,-1.0,9.0,-19.0,-11.0,-7.0,0.0,0.0,0.0,0.0,0.0,0.0,0.0,0.0,0
28.0,6.0,-12.0,-8.0,-13.0,-8.0,-10.0,7.0,0.0,0.0,0.0,0.0,0.0,0.0,0.0,0.0,0
7.0,22.0,4.0,-1.0,-21.0,7.0,1.0,3.0,0.0,0.0,0.0,0.0,0.0,0.0,0.0,0.0,0
-12.0,19.0,10.0,2.0,-6.0,1.0,-1.0,-3.0,0.0,0.0,0.0,0.0,0.0,0.0,0.0,0.0,0
-1.0,3.0,3.0,4.0,6.0,-16.0,-19.0,-11.0,0.0,0.0,0.0,0.0,0.0,0.0,0.0,0.0,0
3.0,-33.0,-17.0,-5.0,-1.0,-15.0,-28.0,-6.0,0.0,0.0,0.0,0.0,0.0,0.0,0.0,0.0,0
-19.0,-64.0,-29.0,-19.0,-12.0,-4.0,-18.0,8.0,0.0,0.0,0.0,0.0,0.0,0.0,0.0,0.0,0
-3.0,-52.0,-28.0,-19.0,-14.0,-1.0,-8.0,16.0,0.0,0.0,0.0,0.0,0.0,0.0,0.0,0.0,0
25.0,-14.0,-24.0,-13.0,-10.0,-6.0,-8.0,10.0,0.0,0.0,0.0,0.0,0.0,0.0,0.0,0.0,0
36.0,17.0,-11.0,1.0,6.0,-15.0,-12.0,-7.0,0.0,0.0,0.0,0.0,0.0,0.0,0.0,0.0,0
35.0,11.0,-4.0,1.0,11.0,-13.0,-2.0,-4.0,0.0,0.0,0.0,0.0,0.0,0.0,0.0,0.0,0
29.0,11.0,-6.0,-2.0,-6.0,-7.0,-8.0,-4.0,0.0,0.0,0.0,0.0,0.0,0.0,0.0,0.0,0
-8.0,16.0,11.0,3.0,-12.0,8.0,0.0,-6.0,0.0,0.0,0.0,0.0,0.0,0.0,0.0,0.0,0
-47.0,-4.0,5.0,10.0,3.0,0.0,8.0,-8.0,0.0,0.0,0.0,0.0,0.0,0.0,0.0,0.0,0
-55.0,-17.0,8.0,7.0,13.0,-3.0,5.0,-8.0,0.0,0.0,0.0,0.0,0.0,0.0,0.0,0.0,0
-46.0,1.0,18.0,9.0,13.0,5.0,16.0,-10.0,0.0,0.0,0.0,0.0,0.0,0.0,0.0,0.0,0
-32.0,17.0,16.0,-4.0,-2.0,18.0,23.0,-3.0,0.0,0.0,0.0,0.0,0.0,0.0,0.0,0.0,0
-7.0,13.0,-7.0,-26.0,-17.0,8.0,13.0,-1.0,0.0,0.0,0.0,0.0,0.0,0.0,0.0,0.0,0
2.0,5.0,-16.0,-20.0,-13.0,-4.0,-1.0,-12.0,0.0,0.0,0.0,0.0,0.0,0.0,0.0,0.0,0
5.0,1.0,-2.0,-2.0,4.0,-7.0,-5.0,-11.0,0.0,0.0,0.0,0.0,0.0,0.0,0.0,0.0,0
5.0,3.0,23.0,7.0,7.0,-6.0,-1.0,-16.0,0.0,0.0,0.0,0.0,0.0,0.0,0.0,0.0,0
5.0,-1.0,31.0,6.0,-5.0,4.0,2.0,-8.0,0.0,0.0,0.0,0.0,0.0,0.0,0.0,0.0,0
-2.0,-5.0,18.0,4.0,-11.0,6.0,-1.0,11.0,0.0,0.0,0.0,0.0,0.0,0.0,0.0,0.0,0
2.0,-4.0,1.0,2.0,-5.0,-1.0,-8.0,3.0,0.0,0.0,0.0,0.0,0.0,0.0,0.0,0.0,0
8.0,-14.0,-14.0,-7.0,3.0,-8.0,-18.0,-2.0,0.0,0.0,0.0,0.0,0.0,0.0,0.0,0.0,0
17.0,-1.0,-17.0,5.0,10.0,-9.0,-25.0,3.0,0.0,0.0,0.0,0.0,0.0,0.0,0.0,0.0,0
29.0,7.0,-18.0,4.0,3.0,-10.0,-13.0,4.0,0.0,0.0,0.0,0.0,0.0,0.0,0.0,0.0,0
13.0,-5.0,-31.0,-19.0,-18.0,-4.0,-8.0,-2.0,0.0,0.0,0.0,0.0,0.0,0.0,0.0,0.0,0
5.0,-9.0,-34.0,-14.0,-19.0,-9.0,-11.0,2.0,0.0,0.0,0.0,0.0,0.0,0.0,0.0,0.0,0
9.0,-6.0,-14.0,10.0,1.0,-20.0,-19.0,5.0,0.0,0.0,0.0,0.0,0.0,0.0,0.0,0.0,0
8.0,-7.0,-20.0,10.0,6.0,-16.0,-24.0,0.0,0.0,0.0,0.0,0.0,0.0,0.0,0.0,0.0,0
-11.0,-20.0,-31.0,-19.0,-6.0,-3.0,-7.0,-2.0,0.0,0.0,0.0,0.0,0.0,0.0,0.0,0.0,0
-30.0,-22.0,-11.0,-27.0,-10.0,10.0,22.0,-10.0,0.0,0.0,0.0,0.0,0.0,0.0,0.0,0.0,0
-33.0,-14.0,6.0,-21.0,-8.0,6.0,21.0,-9.0,0.0,0.0,0.0,0.0,0.0,0.0,0.0,0.0,0
-31.0,-5.0,22.0,5.0,0.0,-2.0,16.0,-11.0,0.0,0.0,0.0,0.0,0.0,0.0,0.0,0.0,0
-23.0,10.0,45.0,22.0,12.0,8.0,9.0,-11.0,0.0,0.0,0.0,0.0,0.0,0.0,0.0,0.0,0
-12.0,18.0,56.0,25.0,6.0,13.0,10.0,-3.0,0.0,0.0,0.0,0.0,0.0,0.0,0.0,0.0,0
16.0,30.0,31.0,-5.0,-9.0,6.0,3.0,3.0,0.0,0.0,0.0,0.0,0.0,0.0,0.0,0.0,0
19.0,19.0,-1.0,-20.0,-8.0,-8.0,-3.0,6.0,0.0,0.0,0.0,0.0,0.0,0.0,0.0,0.0,0
0.0,1.0,-19.0,-18.0,-3.0,-16.0,1.0,-8.0,0.0,0.0,0.0,0.0,0.0,0.0,0.0,0.0,0
-10.0,-6.0,-23.0,-16.0,-2.0,-10.0,1.0,-12.0,0.0,0.0,0.0,0.0,0.0,0.0,0.0,0.0,0
-20.0,0.0,-13.0,0.0,5.0,6.0,4.0,-7.0,0.0,0.0,0.0,0.0,0.0,0.0,0.0,0.0,0
-19.0,2.0,4.0,25.0,3.0,10.0,10.0,3.0,0.0,0.0,0.0,0.0,0.0,0.0,0.0,0.0,0
-7.0,-4.0,5.0,30.0,9.0,8.0,-4.0,-1.0,0.0,0.0,0.0,0.0,0.0,0.0,0.0,0.0,0
15.0,-9.0,-6.0,14.0,8.0,-9.0,-19.0,-4.0,0.0,0.0,0.0,0.0,0.0,0.0,0.0,0.0,0
25.0,-29.0,-24.0,-6.0,6.0,-14.0,-28.0,0.0,0.0,0.0,0.0,0.0,0.0,0.0,0.0,0.0,0
11.0,-7.0,0.0,3.0,-2.0,-8.0,-17.0,2.0,0.0,0.0,0.0,0.0,0.0,0.0,0.0,0.0,0
4.0,-1.0,1.0,0.0,-14.0,-8.0,-16.0,4.0,0.0,0.0,0.0,0.0,0.0,0.0,0.0,0.0,0
13.0,-15.0,-31.0,-23.0,-19.0,-14.0,-22.0,9.0,0.0,0.0,0.0,0.0,0.0,0.0,0.0,0.0,0
29.0,-14.0,-35.0,-17.0,-11.0,-7.0,-9.0,10.0,0.0,0.0,0.0,0.0,0.0,0.0,0.0,0.0,0
31.0,2.0,-14.0,-26.0,-14.0,-10.0,1.0,0.0,0.0,0.0,0.0,0.0,0.0,0.0,0.0,0.0,0
14.0,9.0,-1.0,-18.0,-25.0,-5.0,3.0,-8.0,0.0,0.0,0.0,0.0,0.0,0.0,0.0,0.0,0
-22.0,10.0,13.0,-9.0,-15.0,-1.0,6.0,-5.0,0.0,0.0,0.0,0.0,0.0,0.0,0.0,0.0,0
-36.0,1.0,13.0,-1.0,4.0,-3.0,5.0,-9.0,0.0,0.0,0.0,0.0,0.0,0.0,0.0,0.0,0
-30.0,-13.0,8.0,2.0,11.0,-2.0,5.0,-3.0,0.0,0.0,0.0,0.0,0.0,0.0,0.0,0.0,0
-34.0,-20.0,-1.0,-5.0,9.0,4.0,16.0,-10.0,0.0,0.0,0.0,0.0,0.0,0.0,0.0,0.0,0
-32.0,-10.0,-3.0,-3.0,-3.0,7.0,11.0,-17.0,0.0,0.0,0.0,0.0,0.0,0.0,0.0,0.0,0
-15.0,3.0,5.0,2.0,-1.0,7.0,5.0,-7.0,0.0,0.0,0.0,0.0,0.0,0.0,0.0,0.0,0
-16.0,-2.0,10.0,10.0,8.0,5.0,3.0,-11.0,0.0,0.0,0.0,0.0,0.0,0.0,0.0,0.0,0
-16.0,8.0,8.0,12.0,9.0,3.0,2.0,-6.0,0.0,0.0,0.0,0.0,0.0,0.0,0.0,0.0,0
6.0,30.0,9.0,9.0,10.0,3.0,3.0,0.0,0.0,0.0,0.0,0.0,0.0,0.0,0.0,0.0,0
22.0,24.0,-2.0,5.0,-1.0,1.0,-3.0,6.0,0.0,0.0,0.0,0.0,0.0,0.0,0.0,0.0,0
11.0,8.0,5.0,2.0,-6.0,1.0,-4.0,11.0,0.0,0.0,0.0,0.0,0.0,0.0,0.0,0.0,0
-1.0,-12.0,3.0,4.0,-6.0,-2.0,-2.0,1.0,0.0,0.0,0.0,0.0,0.0,0.0,0.0,0.0,0
-6.0,-32.0,-11.0,-4.0,-8.0,-10.0,-12.0,-2.0,0.0,0.0,0.0,0.0,0.0,0.0,0.0,0.0,0
8.0,-29.0,-13.0,-4.0,-10.0,-9.0,-23.0,-2.0,0.0,0.0,0.0,0.0,0.0,0.0,0.0,0.0,0
10.0,-17.0,-12.0,-5.0,-10.0,-6.0,-11.0,1.0,0.0,0.0,0.0,0.0,0.0,0.0,0.0,0.0,0
8.0,-10.0,-15.0,-8.0,-6.0,-11.0,-11.0,5.0,0.0,0.0,0.0,0.0,0.0,0.0,0.0,0.0,0
19.0,-13.0,-24.0,-9.0,-5.0,-16.0,-22.0,3.0,0.0,0.0,0.0,0.0,0.0,0.0,0.0,0.0,0
18.0,-11.0,-22.0,-15.0,2.0,-15.0,-19.0,-4.0,0.0,0.0,0.0,0.0,0.0,0.0,0.0,0.0,0
10.0,-12.0,-24.0,-12.0,-1.0,-7.0,-11.0,-6.0,0.0,0.0,0.0,0.0,0.0,0.0,0.0,0.0,0
13.0,-5.0,-19.0,-5.0,-2.0,-4.0,-3.0,1.0,0.0,0.0,0.0,0.0,0.0,0.0,0.0,0.0,0
1.0,18.0,-4.0,-3.0,-8.0,-2.0,6.0,-9.0,0.0,0.0,0.0,0.0,0.0,0.0,0.0,0.0,0
-10.0,37.0,6.0,-3.0,-11.0,-5.0,12.0,-6.0,0.0,0.0,0.0,0.0,0.0,0.0,0.0,0.0,0
-17.0,37.0,22.0,2.0,-1.0,-6.0,13.0,-4.0,0.0,0.0,0.0,0.0,0.0,0.0,0.0,0.0,0
-31.0,24.0,32.0,9.0,4.0,-2.0,20.0,-8.0,0.0,0.0,0.0,0.0,0.0,0.0,0.0,0.0,0
-32.0,-5.0,30.0,4.0,5.0,14.0,16.0,-9.0,0.0,0.0,0.0,0.0,0.0,0.0,0.0,0.0,0
-40.0,-38.0,12.0,7.0,0.0,16.0,6.0,-12.0,0.0,0.0,0.0,0.0,0.0,0.0,0.0,0.0,0
-40.0,-52.0,11.0,9.0,4.0,9.0,-1.0,-8.0,0.0,0.0,0.0,0.0,0.0,0.0,0.0,0.0,0
-36.0,-47.0,9.0,11.0,14.0,-3.0,4.0,3.0,0.0,0.0,0.0,0.0,0.0,0.0,0.0,0.0,0
-30.0,-24.0,-3.0,0.0,9.0,6.0,-1.0,-1.0,0.0,0.0,0.0,0.0,0.0,0.0,0.0,0.0,0
-4.0,22.0,-12.0,-15.0,0.0,4.0,-3.0,2.0,0.0,0.0,0.0,0.0,0.0,0.0,0.0,0.0,0
45.0,64.0,-20.0,-13.0,-7.0,1.0,-6.0,-2.0,0.0,0.0,0.0,0.0,0.0,0.0,0.0,0.0,0
52.0,56.0,-10.0,-8.0,-16.0,-11.0,-7.0,-3.0,0.0,0.0,0.0,0.0,0.0,0.0,0.0,0.0,0
47.0,28.0,-9.0,-11.0,-8.0,-16.0,-14.0,-1.0,0.0,0.0,0.0,0.0,0.0,0.0,0.0,0.0,0
36.0,-16.0,-17.0,-9.0,-13.0,-12.0,-18.0,1.0,0.0,0.0,0.0,0.0,0.0,0.0,0.0,0.0,0
7.0,-47.0,-17.0,-6.0,-18.0,-9.0,-14.0,-3.0,0.0,0.0,0.0,0.0,0.0,0.0,0.0,0.0,0
-12.0,-45.0,-15.0,-5.0,-20.0,-4.0,-21.0,-10.0,0.0,0.0,0.0,0.0,0.0,0.0,0.0,0.0,0
-10.0,-23.0,-20.0,-3.0,-11.0,-13.0,-20.0,-1.0,0.0,0.0,0.0,0.0,0.0,0.0,0.0,0.0,0
-12.0,-19.0,-10.0,0.0,-1.0,-13.0,-11.0,6.0,0.0,0.0,0.0,0.0,0.0,0.0,0.0,0.0,0
-10.0,3.0,-5.0,3.0,8.0,-8.0,-4.0,9.0,0.0,0.0,0.0,0.0,0.0,0.0,0.0,0.0,0
1.0,13.0,1.0,-1.0,6.0,-6.0,-5.0,3.0,0.0,0.0,0.0,0.0,0.0,0.0,0.0,0.0,0
2.0,15.0,9.0,0.0,10.0,0.0,5.0,2.0,0.0,0.0,0.0,0.0,0.0,0.0,0.0,0.0,0
-3.0,1.0,20.0,5.0,8.0,3.0,18.0,-4.0,0.0,0.0,0.0,0.0,0.0,0.0,0.0,0.0,0
-13.0,-8.0,10.0,0.0,3.0,7.0,10.0,-3.0,0.0,0.0,0.0,0.0,0.0,0.0,0.0,0.0,0
-33.0,-10.0,6.0,3.0,0.0,10.0,10.0,-9.0,0.0,0.0,0.0,0.0,0.0,0.0,0.0,0.0,0
-31.0,-9.0,2.0,3.0,-4.0,9.0,16.0,-16.0,0.0,0.0,0.0,0.0,0.0,0.0,0.0,0.0,0
-23.0,-1.0,-1.0,4.0,0.0,3.0,7.0,-6.0,0.0,0.0,0.0,0.0,0.0,0.0,0.0,0.0,0
-13.0,6.0,-9.0,10.0,-3.0,3.0,2.0,-13.0,0.0,0.0,0.0,0.0,0.0,0.0,0.0,0.0,0
7.0,22.0,4.0,5.0,2.0,2.0,3.0,-8.0,0.0,0.0,0.0,0.0,0.0,0.0,0.0,0.0,0
12.0,19.0,12.0,-1.0,1.0,1.0,3.0,-7.0,0.0,0.0,0.0,0.0,0.0,0.0,0.0,0.0,0
7.0,13.0,-3.0,-6.0,-3.0,-3.0,-6.0,0.0,0.0,0.0,0.0,0.0,0.0,0.0,0.0,0.0,0
-2.0,-10.0,-7.0,-10.0,-5.0,-4.0,-1.0,-1.0,0.0,0.0,0.0,0.0,0.0,0.0,0.0,0.0,0
-6.0,-17.0,-7.0,-12.0,-8.0,-3.0,-9.0,7.0,0.0,0.0,0.0,0.0,0.0,0.0,0.0,0.0,0
-10.0,-10.0,0.0,-9.0,-6.0,-12.0,-14.0,-1.0,0.0,0.0,0.0,0.0,0.0,0.0,0.0,0.0,0
7.0,0.0,-2.0,-16.0,-8.0,-5.0,-14.0,2.0,0.0,0.0,0.0,0.0,0.0,0.0,0.0,0.0,0
16.0,-19.0,-4.0,-12.0,-15.0,-4.0,-9.0,5.0,0.0,0.0,0.0,0.0,0.0,0.0,0.0,0.0,0
22.0,-22.0,3.0,-2.0,-15.0,-7.0,-14.0,6.0,0.0,0.0,0.0,0.0,0.0,0.0,0.0,0.0,0
30.0,-7.0,9.0,2.0,-9.0,-15.0,-16.0,10.0,0.0,0.0,0.0,0.0,0.0,0.0,0.0,0.0,0
23.0,-8.0,-37.0,-19.0,-5.0,-11.0,-18.0,5.0,0.0,0.0,0.0,0.0,0.0,0.0,0.0,0.0,0
15.0,-7.0,-57.0,-18.0,-4.0,-8.0,-17.0,-9.0,0.0,0.0,0.0,0.0,0.0,0.0,0.0,0.0,0
10.0,1.0,-41.0,-2.0,5.0,-11.0,-9.0,-6.0,0.0,0.0,0.0,0.0,0.0,0.0,0.0,0.0,0
-24.0,-9.0,-12.0,7.0,12.0,-4.0,5.0,-9.0,0.0,0.0,0.0,0.0,0.0,0.0,0.0,0.0,0
-44.0,-22.0,11.0,21.0,12.0,4.0,16.0,-6.0,0.0,0.0,0.0,0.0,0.0,0.0,0.0,0.0,0
-41.0,-5.0,50.0,36.0,14.0,10.0,15.0,-1.0,0.0,0.0,0.0,0.0,0.0,0.0,0.0,0.0,0
-19.0,26.0,66.0,26.0,12.0,11.0,21.0,0.0,0.0,0.0,0.0,0.0,0.0,0.0,0.0,0.0,0
-11.0,37.0,39.0,-2.0,0.0,7.0,15.0,-9.0,0.0,0.0,0.0,0.0,0.0,0.0,0.0,0.0,0
-5.0,15.0,8.0,-20.0,-10.0,5.0,5.0,-15.0,0.0,0.0,0.0,0.0,0.0,0.0,0.0,0.0,0
-5.0,-5.0,-11.0,-20.0,-9.0,4.0,9.0,-8.0,0.0,0.0,0.0,0.0,0.0,0.0,0.0,0.0,0
-4.0,-3.0,-21.0,-17.0,-16.0,-2.0,-3.0,-4.0,0.0,0.0,0.0,0.0,0.0,0.0,0.0,0.0,0
9.0,11.0,-16.0,-12.0,-9.0,-3.0,-7.0,-5.0,0.0,0.0,0.0,0.0,0.0,0.0,0.0,0.0,0
11.0,-11.0,-21.0,-9.0,-3.0,-4.0,-7.0,-3.0,0.0,0.0,0.0,0.0,0.0,0.0,0.0,0.0,0
-28.0,-57.0,-20.0,-1.0,2.0,2.0,-1.0,2.0,0.0,0.0,0.0,0.0,0.0,0.0,0.0,0.0,0
-43.0,-60.0,0.0,7.0,5.0,0.0,2.0,6.0,0.0,0.0,0.0,0.0,0.0,0.0,0.0,0.0,0
-1.0,-14.0,8.0,7.0,2.0,-5.0,-5.0,4.0,0.0,0.0,0.0,0.0,0.0,0.0,0.0,0.0,0
32.0,9.0,-7.0,2.0,0.0,-13.0,-14.0,0.0,0.0,0.0,0.0,0.0,0.0,0.0,0.0,0.0,0
38.0,21.0,-11.0,0.0,-1.0,-9.0,-12.0,-2.0,0.0,0.0,0.0,0.0,0.0,0.0,0.0,0.0,0
32.0,31.0,-12.0,-7.0,-5.0,-5.0,-25.0,7.0,0.0,0.0,0.0,0.0,0.0,0.0,0.0,0.0,0
39.0,26.0,-20.0,-14.0,-8.0,-12.0,-31.0,7.0,0.0,0.0,0.0,0.0,0.0,0.0,0.0,0.0,0
41.0,35.0,-12.0,-21.0,-15.0,-11.0,-23.0,2.0,0.0,0.0,0.0,0.0,0.0,0.0,0.0,0.0,0
9.0,30.0,-3.0,-19.0,-14.0,-9.0,-10.0,2.0,0.0,0.0,0.0,0.0,0.0,0.0,0.0,0.0,0
-15.0,-6.0,-13.0,-5.0,-11.0,-13.0,-1.0,3.0,0.0,0.0,0.0,0.0,0.0,0.0,0.0,0.0,0
-34.0,-30.0,-8.0,3.0,-2.0,-8.0,14.0,-4.0,0.0,0.0,0.0,0.0,0.0,0.0,0.0,0.0,0
-36.0,-45.0,-2.0,10.0,5.0,-4.0,14.0,-11.0,0.0,0.0,0.0,0.0,0.0,0.0,0.0,0.0,0
-31.0,-45.0,7.0,11.0,6.0,-2.0,14.0,-12.0,0.0,0.0,0.0,0.0,0.0,0.0,0.0,0.0,0
-36.0,-30.0,21.0,11.0,6.0,13.0,26.0,-12.0,0.0,0.0,0.0,0.0,0.0,0.0,0.0,0.0,0
-38.0,-12.0,21.0,14.0,12.0,15.0,19.0,-8.0,0.0,0.0,0.0,0.0,0.0,0.0,0.0,0.0,0
-11.0,-3.0,13.0,0.0,5.0,9.0,1.0,-8.0,0.0,0.0,0.0,0.0,0.0,0.0,0.0,0.0,0
2.0,15.0,7.0,-7.0,2.0,2.0,5.0,-4.0,0.0,0.0,0.0,0.0,0.0,0.0,0.0,0.0,0
-6.0,29.0,12.0,-8.0,-9.0,8.0,8.0,-6.0,0.0,0.0,0.0,0.0,0.0,0.0,0.0,0.0,0
0.0,31.0,11.0,-1.0,-11.0,4.0,3.0,-2.0,0.0,0.0,0.0,0.0,0.0,0.0,0.0,0.0,0
19.0,29.0,0.0,-7.0,-6.0,-3.0,-4.0,2.0,0.0,0.0,0.0,0.0,0.0,0.0,0.0,0.0,0
20.0,20.0,-12.0,-13.0,-4.0,-8.0,-10.0,2.0,0.0,0.0,0.0,0.0,0.0,0.0,0.0,0.0,0
18.0,6.0,-20.0,-13.0,-3.0,-6.0,-10.0,2.0,0.0,0.0,0.0,0.0,0.0,0.0,0.0,0.0,0
8.0,-22.0,-19.0,-9.0,-2.0,-12.0,-17.0,-1.0,0.0,0.0,0.0,0.0,0.0,0.0,0.0,0.0,0
-2.0,-40.0,-28.0,2.0,0.0,-13.0,-22.0,2.0,0.0,0.0,0.0,0.0,0.0,0.0,0.0,0.0,0
-11.0,-37.0,-22.0,4.0,1.0,-8.0,-17.0,3.0,0.0,0.0,0.0,0.0,0.0,0.0,0.0,0.0,0
5.0,-20.0,-17.0,-2.0,-4.0,-5.0,-14.0,0.0,0.0,0.0,0.0,0.0,0.0,0.0,0.0,0.0,0
18.0,-12.0,-13.0,5.0,0.0,-6.0,-20.0,6.0,0.0,0.0,0.0,0.0,0.0,0.0,0.0,0.0,0
17.0,-6.0,-2.0,1.0,-9.0,-7.0,-14.0,5.0,0.0,0.0,0.0,0.0,0.0,0.0,0.0,0.0,0
7.0,4.0,7.0,-1.0,-5.0,-6.0,-4.0,-4.0,0.0,0.0,0.0,0.0,0.0,0.0,0.0,0.0,0
7.0,10.0,-1.0,-2.0,-12.0,-9.0,3.0,0.0,0.0,0.0,0.0,0.0,0.0,0.0,0.0,0.0,0
8.0,17.0,-6.0,-12.0,-15.0,-11.0,1.0,-1.0,0.0,0.0,0.0,0.0,0.0,0.0,0.0,0.0,0
-3.0,1.0,-7.0,-12.0,-5.0,-6.0,1.0,-9.0,0.0,0.0,0.0,0.0,0.0,0.0,0.0,0.0,0
-31.0,1.0,17.0,-1.0,3.0,5.0,11.0,-13.0,0.0,0.0,0.0,0.0,0.0,0.0,0.0,0.0,0
-48.0,0.0,34.0,10.0,9.0,15.0,26.0,-16.0,0.0,0.0,0.0,0.0,0.0,0.0,0.0,0.0,0
-57.0,4.0,47.0,10.0,16.0,22.0,44.0,-19.0,0.0,0.0,0.0,0.0,0.0,0.0,0.0,0.0,0
-44.0,13.0,37.0,10.0,12.0,19.0,44.0,-17.0,0.0,0.0,0.0,0.0,0.0,0.0,0.0,0.0,0
-2.0,2.0,-23.0,-11.0,3.0,1.0,1.0,-6.0,0.0,0.0,0.0,0.0,0.0,0.0,0.0,0.0,0
37.0,-20.0,-68.0,-33.0,-14.0,-15.0,-49.0,9.0,0.0,0.0,0.0,0.0,0.0,0.0,0.0,0.0,0
27.0,-37.0,-67.0,-26.0,-11.0,-19.0,-50.0,16.0,0.0,0.0,0.0,0.0,0.0,0.0,0.0,0.0,0
-7.0,-32.0,-40.0,-15.0,-13.0,-13.0,-27.0,9.0,0.0,0.0,0.0,0.0,0.0,0.0,0.0,0.0,0
-9.0,7.0,-5.0,2.0,-8.0,-8.0,-1.0,-5.0,0.0,0.0,0.0,0.0,0.0,0.0,0.0,0.0,0
30.0,45.0,29.0,12.0,-3.0,-3.0,-1.0,-3.0,0.0,0.0,0.0,0.0,0.0,0.0,0.0,0.0,0
48.0,45.0,38.0,13.0,2.0,1.0,6.0,1.0,0.0,0.0,0.0,0.0,0.0,0.0,0.0,0.0,0
36.0,7.0,22.0,6.0,-9.0,-7.0,-5.0,-3.0,0.0,0.0,0.0,0.0,0.0,0.0,0.0,0.0,0
-9.0,-21.0,15.0,-4.0,-1.0,-3.0,1.0,-5.0,0.0,0.0,0.0,0.0,0.0,0.0,0.0,0.0,0
-45.0,-15.0,8.0,-10.0,2.0,3.0,16.0,-7.0,0.0,0.0,0.0,0.0,0.0,0.0,0.0,0.0,0
-31.0,-10.0,-7.0,-11.0,10.0,7.0,11.0,-2.0,0.0,0.0,0.0,0.0,0.0,0.0,0.0,0.0,0
11.0,3.0,-17.0,-1.0,8.0,2.0,-19.0,4.0,0.0,0.0,0.0,0.0,0.0,0.0,0.0,0.0,0
24.0,20.0,-12.0,13.0,1.0,-9.0,-24.0,1.0,0.0,0.0,0.0,0.0,0.0,0.0,0.0,0.0,0
22.0,2.0,-34.0,-5.0,-14.0,-15.0,-23.0,4.0,0.0,0.0,0.0,0.0,0.0,0.0,0.0,0.0,0
-2.0,-30.0,-23.0,-7.0,-16.0,-13.0,-8.0,-8.0,0.0,0.0,0.0,0.0,0.0,0.0,0.0,0.0,0
-26.0,-40.0,9.0,11.0,-2.0,-3.0,5.0,-6.0,0.0,0.0,0.0,0.0,0.0,0.0,0.0,0.0,0
-48.0,-50.0,12.0,19.0,7.0,10.0,14.0,-7.0,0.0,0.0,0.0,0.0,0.0,0.0,0.0,0.0,0
-44.0,-39.0,11.0,9.0,7.0,14.0,23.0,-8.0,0.0,0.0,0.0,0.0,0.0,0.0,0.0,0.0,0
-22.0,0.0,17.0,-1.0,3.0,6.0,17.0,0.0,0.0,0.0,0.0,0.0,0.0,0.0,0.0,0.0,0
4.0,35.0,6.0,-12.0,-9.0,1.0,-4.0,6.0,0.0,0.0,0.0,0.0,0.0,0.0,0.0,0.0,0
10.0,53.0,-1.0,-29.0,-14.0,-3.0,-2.0,-7.0,0.0,0.0,0.0,0.0,0.0,0.0,0.0,0.0,0
7.0,50.0,3.0,-33.0,-11.0,0.0,1.0,-14.0,0.0,0.0,0.0,0.0,0.0,0.0,0.0,0.0,0
-1.0,20.0,4.0,-18.0,-6.0,-1.0,4.0,-13.0,0.0,0.0,0.0,0.0,0.0,0.0,0.0,0.0,0
12.0,11.0,-8.0,-16.0,-2.0,-9.0,-6.0,-7.0,0.0,0.0,0.0,0.0,0.0,0.0,0.0,0.0,0
10.0,-4.0,-24.0,-7.0,-1.0,-13.0,-17.0,-2.0,0.0,0.0,0.0,0.0,0.0,0.0,0.0,0.0,0
12.0,-14.0,-19.0,4.0,-2.0,-6.0,-17.0,-1.0,0.0,0.0,0.0,0.0,0.0,0.0,0.0,0.0,0
5.0,-16.0,4.0,22.0,5.0,1.0,-4.0,3.0,0.0,0.0,0.0,0.0,0.0,0.0,0.0,0.0,0
-11.0,-24.0,11.0,26.0,1.0,5.0,3.0,2.0,0.0,0.0,0.0,0.0,0.0,0.0,0.0,0.0,0
-12.0,-28.0,9.0,12.0,-4.0,4.0,9.0,-1.0,0.0,0.0,0.0,0.0,0.0,0.0,0.0,0.0,0
-7.0,-21.0,-6.0,1.0,-1.0,2.0,-2.0,3.0,0.0,0.0,0.0,0.0,0.0,0.0,0.0,0.0,0
-2.0,-12.0,-16.0,-5.0,-9.0,-12.0,-21.0,9.0,0.0,0.0,0.0,0.0,0.0,0.0,0.0,0.0,0
29.0,-14.0,-38.0,-24.0,-8.0,-21.0,-38.0,15.0,0.0,0.0,0.0,0.0,0.0,0.0,0.0,0.0,0
39.0,-11.0,-39.0,-15.0,-5.0,-22.0,-31.0,4.0,0.0,0.0,0.0,0.0,0.0,0.0,0.0,0.0,0
15.0,1.0,-8.0,-4.0,-4.0,-11.0,-6.0,-10.0,0.0,0.0,0.0,0.0,0.0,0.0,0.0,0.0,0
-16.0,4.0,3.0,-6.0,-8.0,0.0,18.0,-13.0,0.0,0.0,0.0,0.0,0.0,0.0,0.0,0.0,0
-25.0,12.0,9.0,-5.0,1.0,5.0,18.0,-10.0,0.0,0.0,0.0,0.0,0.0,0.0,0.0,0.0,0
-24.0,8.0,22.0,-1.0,8.0,8.0,16.0,-9.0,0.0,0.0,0.0,0.0,0.0,0.0,0.0,0.0,0
-43.0,6.0,26.0,10.0,9.0,8.0,20.0,-9.0,0.0,0.0,0.0,0.0,0.0,0.0,0.0,0.0,0
-31.0,10.0,31.0,14.0,12.0,12.0,15.0,-1.0,0.0,0.0,0.0,0.0,0.0,0.0,0.0,0.0,0
-9.0,8.0,11.0,14.0,4.0,11.0,3.0,-5.0,0.0,0.0,0.0,0.0,0.0,0.0,0.0,0.0,0
-10.0,2.0,7.0,5.0,-1.0,2.0,1.0,-3.0,0.0,0.0,0.0,0.0,0.0,0.0,0.0,0.0,0
-13.0,-6.0,8.0,-3.0,-3.0,-3.0,6.0,-6.0,0.0,0.0,0.0,0.0,0.0,0.0,0.0,0.0,0
-4.0,12.0,1.0,-9.0,-8.0,0.0,1.0,-4.0,0.0,0.0,0.0,0.0,0.0,0.0,0.0,0.0,0
9.0,13.0,-11.0,-17.0,-18.0,-3.0,-8.0,-2.0,0.0,0.0,0.0,0.0,0.0,0.0,0.0,0.0,0
18.0,-2.0,-19.0,-8.0,-13.0,-6.0,-9.0,-1.0,0.0,0.0,0.0,0.0,0.0,0.0,0.0,0.0,0
23.0,6.0,-6.0,-5.0,-6.0,-5.0,-6.0,-5.0,0.0,0.0,0.0,0.0,0.0,0.0,0.0,0.0,0
12.0,13.0,6.0,-9.0,0.0,-4.0,-1.0,-10.0,0.0,0.0,0.0,0.0,0.0,0.0,0.0,0.0,0
8.0,-27.0,-29.0,-21.0,-12.0,-12.0,-22.0,2.0,0.0,0.0,0.0,0.0,0.0,0.0,0.0,0.0,0
10.0,-57.0,-49.0,-23.0,-14.0,-11.0,-27.0,14.0,0.0,0.0,0.0,0.0,0.0,0.0,0.0,0.0,0
13.0,-52.0,-51.0,-14.0,-2.0,-9.0,-25.0,16.0,0.0,0.0,0.0,0.0,0.0,0.0,0.0,0.0,0
12.0,-30.0,-42.0,-5.0,5.0,-11.0,-21.0,16.0,0.0,0.0,0.0,0.0,0.0,0.0,0.0,0.0,0
-17.0,-5.0,-2.0,8.0,9.0,-6.0,-1.0,0.0,0.0,0.0,0.0,0.0,0.0,0.0,0.0,0.0,0
-6.0,23.0,28.0,12.0,7.0,-8.0,10.0,-15.0,0.0,0.0,0.0,0.0,0.0,0.0,0.0,0.0,0
33.0,35.0,13.0,8.0,-5.0,-11.0,-9.0,-7.0,0.0,0.0,0.0,0.0,0.0,0.0,0.0,0.0,0
-1.0,35.0,26.0,20.0,-1.0,4.0,10.0,-13.0,0.0,0.0,0.0,0.0,0.0,0.0,0.0,0.0,0
-32.0,27.0,33.0,15.0,5.0,9.0,30.0,-17.0,0.0,0.0,0.0,0.0,0.0,0.0,0.0,0.0,0
-33.0,30.0,23.0,13.0,0.0,12.0,24.0,-12.0,0.0,0.0,0.0,0.0,0.0,0.0,0.0,0.0,0
-27.0,11.0,16.0,8.0,-5.0,12.0,10.0,-9.0,0.0,0.0,0.0,0.0,0.0,0.0,0.0,0.0,0
-7.0,-8.0,6.0,0.0,-8.0,3.0,-3.0,-7.0,0.0,0.0,0.0,0.0,0.0,0.0,0.0,0.0,0
-2.0,-49.0,-18.0,-10.0,-8.0,-7.0,-14.0,1.0,0.0,0.0,0.0,0.0,0.0,0.0,0.0,0.0,0
-27.0,-87.0,-32.0,-21.0,-2.0,-13.0,-21.0,5.0,0.0,0.0,0.0,0.0,0.0,0.0,0.0,0.0,0
-52.0,-64.0,-17.0,-20.0,3.0,-6.0,-6.0,-9.0,0.0,0.0,0.0,0.0,0.0,0.0,0.0,0.0,0
-24.0,6.0,19.0,2.0,3.0,3.0,14.0,-6.0,0.0,0.0,0.0,0.0,0.0,0.0,0.0,0.0,0
10.0,45.0,14.0,1.0,-3.0,9.0,12.0,1.0,0.0,0.0,0.0,0.0,0.0,0.0,0.0,0.0,0
11.0,62.0,18.0,-5.0,1.0,12.0,21.0,-10.0,0.0,0.0,0.0,0.0,0.0,0.0,0.0,0.0,0
34.0,57.0,1.0,-11.0,-6.0,5.0,2.0,-14.0,0.0,0.0,0.0,0.0,0.0,0.0,0.0,0.0,0
40.0,31.0,-15.0,-6.0,-4.0,-4.0,-17.0,0.0,0.0,0.0,0.0,0.0,0.0,0.0,0.0,0.0,0
21.0,-15.0,-22.0,0.0,4.0,-7.0,-26.0,13.0,0.0,0.0,0.0,0.0,0.0,0.0,0.0,0.0,0
-3.0,-47.0,-28.0,-5.0,-5.0,-10.0,-18.0,13.0,0.0,0.0,0.0,0.0,0.0,0.0,0.0,0.0,0
6.0,-45.0,-38.0,-16.0,-17.0,-17.0,-27.0,10.0,0.0,0.0,0.0,0.0,0.0,0.0,0.0,0.0,0
23.0,-26.0,-34.0,-5.0,-12.0,-24.0,-31.0,16.0,0.0,0.0,0.0,0.0,0.0,0.0,0.0,0.0,0
9.0,-12.0,-14.0,-1.0,-12.0,-18.0,-18.0,-5.0,0.0,0.0,0.0,0.0,0.0,0.0,0.0,0.0,0
8.0,-13.0,-4.0,-1.0,-9.0,-4.0,-9.0,-9.0,0.0,0.0,0.0,0.0,0.0,0.0,0.0,0.0,0
0.0,-7.0,9.0,5.0,-4.0,-6.0,-1.0,-9.0,0.0,0.0,0.0,0.0,0.0,0.0,0.0,0.0,0
-20.0,1.0,19.0,3.0,3.0,-1.0,20.0,-6.0,0.0,0.0,0.0,0.0,0.0,0.0,0.0,0.0,0
-35.0,9.0,24.0,4.0,8.0,11.0,20.0,-5.0,0.0,0.0,0.0,0.0,0.0,0.0,0.0,0.0,0
-29.0,9.0,13.0,1.0,5.0,10.0,15.0,-9.0,0.0,0.0,0.0,0.0,0.0,0.0,0.0,0.0,0
-37.0,-1.0,-1.0,-8.0,2.0,8.0,17.0,-8.0,0.0,0.0,0.0,0.0,0.0,0.0,0.0,0.0,0
-22.0,-3.0,-5.0,-5.0,5.0,0.0,7.0,-10.0,0.0,0.0,0.0,0.0,0.0,0.0,0.0,0.0,0
-7.0,11.0,4.0,-3.0,1.0,-2.0,5.0,-6.0,0.0,0.0,0.0,0.0,0.0,0.0,0.0,0.0,0
-5.0,17.0,14.0,6.0,-4.0,4.0,-5.0,-3.0,0.0,0.0,0.0,0.0,0.0,0.0,0.0,0.0,0
8.0,10.0,12.0,-3.0,-5.0,5.0,0.0,-5.0,0.0,0.0,0.0,0.0,0.0,0.0,0.0,0.0,0
11.0,5.0,6.0,-4.0,-4.0,-1.0,4.0,-5.0,0.0,0.0,0.0,0.0,0.0,0.0,0.0,0.0,0
-4.0,-8.0,7.0,5.0,1.0,3.0,-1.0,2.0,0.0,0.0,0.0,0.0,0.0,0.0,0.0,0.0,0
3.0,-6.0,1.0,3.0,-2.0,-1.0,-8.0,1.0,0.0,0.0,0.0,0.0,0.0,0.0,0.0,0.0,0
10.0,-1.0,-6.0,-1.0,-1.0,-5.0,-10.0,-2.0,0.0,0.0,0.0,0.0,0.0,0.0,0.0,0.0,0
-8.0,1.0,-9.0,-2.0,-2.0,-5.0,-9.0,4.0,0.0,0.0,0.0,0.0,0.0,0.0,0.0,0.0,0
-2.0,3.0,-20.0,-4.0,5.0,-8.0,-19.0,3.0,0.0,0.0,0.0,0.0,0.0,0.0,0.0,0.0,0
11.0,1.0,-18.0,-7.0,10.0,-9.0,-10.0,-2.0,0.0,0.0,0.0,0.0,0.0,0.0,0.0,0.0,0
12.0,-2.0,-14.0,-11.0,-5.0,-1.0,-7.0,0.0,0.0,0.0,0.0,0.0,0.0,0.0,0.0,0.0,0
23.0,-8.0,-30.0,-13.0,-20.0,-4.0,-13.0,6.0,0.0,0.0,0.0,0.0,0.0,0.0,0.0,0.0,0
24.0,-16.0,-32.0,-13.0,-17.0,-9.0,-15.0,6.0,0.0,0.0,0.0,0.0,0.0,0.0,0.0,0.0,0
14.0,-21.0,-25.0,-7.0,-14.0,-14.0,-18.0,0.0,0.0,0.0,0.0,0.0,0.0,0.0,0.0,0.0,0
5.0,-39.0,-19.0,4.0,-12.0,-10.0,-20.0,-1.0,0.0,0.0,0.0,0.0,0.0,0.0,0.0,0.0,0
-17.0,-35.0,4.0,5.0,-14.0,-13.0,-3.0,-1.0,0.0,0.0,0.0,0.0,0.0,0.0,0.0,0.0,0
-27.0,-9.0,20.0,-2.0,-10.0,-8.0,11.0,-8.0,0.0,0.0,0.0,0.0,0.0,0.0,0.0,0.0,0
-32.0,12.0,26.0,-8.0,-6.0,1.0,13.0,-12.0,0.0,0.0,0.0,0.0,0.0,0.0,0.0,0.0,0
-47.0,9.0,42.0,-2.0,6.0,14.0,25.0,-18.0,0.0,0.0,0.0,0.0,0.0,0.0,0.0,0.0,0
-40.0,18.0,35.0,3.0,18.0,11.0,27.0,-14.0,0.0,0.0,0.0,0.0,0.0,0.0,0.0,0.0,0
-10.0,35.0,21.0,4.0,16.0,8.0,12.0,-4.0,0.0,0.0,0.0,0.0,0.0,0.0,0.0,0.0,0
8.0,40.0,7.0,3.0,17.0,9.0,11.0,-8.0,0.0,0.0,0.0,0.0,0.0,0.0,0.0,0.0,0
11.0,7.0,-13.0,-9.0,7.0,11.0,1.0,-7.0,0.0,0.0,0.0,0.0,0.0,0.0,0.0,0.0,0
21.0,-23.0,-29.0,-19.0,-3.0,-2.0,-13.0,-6.0,0.0,0.0,0.0,0.0,0.0,0.0,0.0,0.0,0
24.0,-35.0,-31.0,-4.0,-9.0,-5.0,-21.0,1.0,0.0,0.0,0.0,0.0,0.0,0.0,0.0,0.0,0
1.0,-10.0,-4.0,8.0,-6.0,-4.0,0.0,2.0,0.0,0.0,0.0,0.0,0.0,0.0,0.0,0.0,0
-23.0,9.0,12.0,4.0,-4.0,-4.0,4.0,4.0,0.0,0.0,0.0,0.0,0.0,0.0,0.0,0.0,0
-17.0,14.0,5.0,7.0,-1.0,0.0,-7.0,-1.0,0.0,0.0,0.0,0.0,0.0,0.0,0.0,0.0,0
-6.0,2.0,-6.0,2.0,-9.0,-13.0,-15.0,1.0,0.0,0.0,0.0,0.0,0.0,0.0,0.0,0.0,0
-3.0,-22.0,-27.0,-3.0,-9.0,-15.0,-10.0,8.0,0.0,0.0,0.0,0.0,0.0,0.0,0.0,0.0,0
22.0,-2.0,-21.0,6.0,-8.0,-13.0,-17.0,2.0,0.0,0.0,0.0,0.0,0.0,0.0,0.0,0.0,0
45.0,24.0,-17.0,3.0,-6.0,-12.0,-25.0,7.0,0.0,0.0,0.0,0.0,0.0,0.0,0.0,0.0,0
35.0,-1.0,-5.0,-3.0,4.0,-18.0,-22.0,0.0,0.0,0.0,0.0,0.0,0.0,0.0,0.0,0.0,0
1.0,-29.0,1.0,-10.0,-9.0,-6.0,-18.0,-5.0,0.0,0.0,0.0,0.0,0.0,0.0,0.0,0.0,0
-9.0,-27.0,-1.0,-16.0,-12.0,-1.0,-12.0,-2.0,0.0,0.0,0.0,0.0,0.0,0.0,0.0,0.0,0
-9.0,-16.0,9.0,0.0,-6.0,0.0,-1.0,1.0,0.0,0.0,0.0,0.0,0.0,0.0,0.0,0.0,0
-10.0,-5.0,1.0,2.0,-4.0,-1.0,7.0,-2.0,0.0,0.0,0.0,0.0,0.0,0.0,0.0,0.0,0
-19.0,-11.0,-12.0,-29.0,-8.0,2.0,18.0,-13.0,0.0,0.0,0.0,0.0,0.0,0.0,0.0,0.0,0
-46.0,-2.0,1.0,-33.0,-8.0,11.0,25.0,-17.0,0.0,0.0,0.0,0.0,0.0,0.0,0.0,0.0,0
-44.0,9.0,11.0,-20.0,-6.0,9.0,25.0,-15.0,0.0,0.0,0.0,0.0,0.0,0.0,0.0,0.0,0
-25.0,12.0,5.0,7.0,10.0,-3.0,16.0,-8.0,0.0,0.0,0.0,0.0,0.0,0.0,0.0,0.0,0
3.0,22.0,2.0,27.0,20.0,3.0,14.0,-2.0,0.0,0.0,0.0,0.0,0.0,0.0,0.0,0.0,0
-3.0,21.0,14.0,30.0,19.0,3.0,10.0,-3.0,0.0,0.0,0.0,0.0,0.0,0.0,0.0,0.0,0
-14.0,12.0,19.0,26.0,7.0,3.0,-8.0,-7.0,0.0,0.0,0.0,0.0,0.0,0.0,0.0,0.0,0
-3.0,12.0,28.0,21.0,2.0,3.0,-19.0,-3.0,0.0,0.0,0.0,0.0,0.0,0.0,0.0,0.0,0
9.0,2.0,15.0,2.0,-6.0,-1.0,-10.0,7.0,0.0,0.0,0.0,0.0,0.0,0.0,0.0,0.0,0
3.0,-23.0,-10.0,-11.0,-15.0,0.0,-7.0,2.0,0.0,0.0,0.0,0.0,0.0,0.0,0.0,0.0,0
6.0,-32.0,-31.0,-16.0,-9.0,-7.0,-16.0,-1.0,0.0,0.0,0.0,0.0,0.0,0.0,0.0,0.0,0
32.0,-21.0,-42.0,-26.0,-14.0,-18.0,-20.0,9.0,0.0,0.0,0.0,0.0,0.0,0.0,0.0,0.0,0
35.0,-19.0,-38.0,-24.0,-12.0,-7.0,-13.0,10.0,0.0,0.0,0.0,0.0,0.0,0.0,0.0,0.0,0
20.0,-19.0,-26.0,-16.0,-13.0,-9.0,-16.0,-4.0,0.0,0.0,0.0,0.0,0.0,0.0,0.0,0.0,0
15.0,-24.0,-21.0,-15.0,-11.0,-14.0,-19.0,1.0,0.0,0.0,0.0,0.0,0.0,0.0,0.0,0.0,0
17.0,6.0,-17.0,-3.0,1.0,-9.0,-19.0,1.0,0.0,0.0,0.0,0.0,0.0,0.0,0.0,0.0,0
19.0,41.0,-2.0,5.0,-2.0,-9.0,-3.0,7.0,0.0,0.0,0.0,0.0,0.0,0.0,0.0,0.0,0
-3.0,36.0,9.0,5.0,-1.0,-7.0,0.0,-5.0,0.0,0.0,0.0,0.0,0.0,0.0,0.0,0.0,0
-34.0,-11.0,17.0,6.0,3.0,-4.0,4.0,0.0,0.0,0.0,0.0,0.0,0.0,0.0,0.0,0.0,0
-47.0,-48.0,19.0,3.0,9.0,6.0,16.0,-3.0,0.0,0.0,0.0,0.0,0.0,0.0,0.0,0.0,0
-52.0,-43.0,18.0,6.0,15.0,7.0,24.0,-13.0,0.0,0.0,0.0,0.0,0.0,0.0,0.0,0.0,0
-37.0,-4.0,21.0,11.0,7.0,9.0,21.0,-14.0,0.0,0.0,0.0,0.0,0.0,0.0,0.0,0.0,0
-11.0,29.0,11.0,-2.0,1.0,10.0,9.0,-11.0,0.0,0.0,0.0,0.0,0.0,0.0,0.0,0.0,0
6.0,34.0,-1.0,-1.0,-4.0,6.0,-4.0,-11.0,0.0,0.0,0.0,0.0,0.0,0.0,0.0,0.0,0
10.0,28.0,0.0,3.0,-7.0,-6.0,-6.0,-8.0,0.0,0.0,0.0,0.0,0.0,0.0,0.0,0.0,0
-5.0,13.0,2.0,-2.0,-12.0,-11.0,-9.0,-3.0,0.0,0.0,0.0,0.0,0.0,0.0,0.0,0.0,0
-16.0,-1.0,1.0,0.0,-8.0,1.0,-6.0,0.0,0.0,0.0,0.0,0.0,0.0,0.0,0.0,0.0,0
-6.0,-12.0,2.0,-4.0,-5.0,-4.0,-3.0,4.0,0.0,0.0,0.0,0.0,0.0,0.0,0.0,0.0,0
15.0,-21.0,-3.0,-4.0,-2.0,-1.0,4.0,-2.0,0.0,0.0,0.0,0.0,0.0,0.0,0.0,0.0,0
12.0,-15.0,-20.0,-25.0,-4.0,1.0,9.0,-4.0,0.0,0.0,0.0,0.0,0.0,0.0,0.0,0.0,0
12.0,-28.0,-29.0,-31.0,4.0,4.0,-3.0,-3.0,0.0,0.0,0.0,0.0,0.0,0.0,0.0,0.0,0
9.0,-33.0,-29.0,-25.0,-2.0,2.0,-21.0,5.0,0.0,0.0,0.0,0.0,0.0,0.0,0.0,0.0,0
4.0,-13.0,-22.0,-10.0,0.0,-12.0,-21.0,10.0,0.0,0.0,0.0,0.0,0.0,0.0,0.0,0.0,0
24.0,10.0,-16.0,4.0,-2.0,-15.0,-22.0,4.0,0.0,0.0,0.0,0.0,0.0,0.0,0.0,0.0,0
31.0,26.0,-11.0,8.0,-3.0,-16.0,-27.0,7.0,0.0,0.0,0.0,0.0,0.0,0.0,0.0,0.0,0
16.0,22.0,5.0,20.0,-6.0,-13.0,-24.0,9.0,0.0,0.0,0.0,0.0,0.0,0.0,0.0,0.0,0
0.0,11.0,14.0,20.0,-9.0,-3.0,-17.0,2.0,0.0,0.0,0.0,0.0,0.0,0.0,0.0,0.0,0
-15.0,-15.0,0.0,5.0,-11.0,-8.0,-6.0,-7.0,0.0,0.0,0.0,0.0,0.0,0.0,0.0,0.0,0
-29.0,-30.0,9.0,-1.0,-6.0,-5.0,12.0,-10.0,0.0,0.0,0.0,0.0,0.0,0.0,0.0,0.0,0
-19.0,-12.0,12.0,4.0,5.0,3.0,22.0,-8.0,0.0,0.0,0.0,0.0,0.0,0.0,0.0,0.0,0
-12.0,0.0,1.0,1.0,7.0,7.0,26.0,-6.0,0.0,0.0,0.0,0.0,0.0,0.0,0.0,0.0,0
-19.0,-1.0,-2.0,-13.0,3.0,14.0,20.0,-12.0,0.0,0.0,0.0,0.0,0.0,0.0,0.0,0.0,0
-20.0,3.0,-4.0,-9.0,-1.0,8.0,8.0,-7.0,0.0,0.0,0.0,0.0,0.0,0.0,0.0,0.0,0
-13.0,11.0,-1.0,-5.0,-3.0,-3.0,4.0,-3.0,0.0,0.0,0.0,0.0,0.0,0.0,0.0,0.0,0
-14.0,9.0,12.0,-7.0,-4.0,-4.0,5.0,-6.0,0.0,0.0,0.0,0.0,0.0,0.0,0.0,0.0,0
-11.0,8.0,20.0,-1.0,-2.0,3.0,-3.0,-6.0,0.0,0.0,0.0,0.0,0.0,0.0,0.0,0.0,0
-9.0,8.0,16.0,6.0,-3.0,3.0,-3.0,-10.0,0.0,0.0,0.0,0.0,0.0,0.0,0.0,0.0,0
-15.0,-14.0,1.0,5.0,-4.0,6.0,1.0,-2.0,0.0,0.0,0.0,0.0,0.0,0.0,0.0,0.0,0
4.0,-14.0,-2.0,6.0,6.0,5.0,1.0,7.0,0.0,0.0,0.0,0.0,0.0,0.0,0.0,0.0,0
5.0,-7.0,-4.0,2.0,5.0,-5.0,-1.0,6.0,0.0,0.0,0.0,0.0,0.0,0.0,0.0,0.0,0
5.0,-22.0,-18.0,-14.0,-6.0,-6.0,-20.0,1.0,0.0,0.0,0.0,0.0,0.0,0.0,0.0,0.0,0
40.0,-7.0,-28.0,-23.0,-6.0,-9.0,-21.0,1.0,0.0,0.0,0.0,0.0,0.0,0.0,0.0,0.0,0
43.0,17.0,-20.0,-20.0,-10.0,-9.0,-11.0,1.0,0.0,0.0,0.0,0.0,0.0,0.0,0.0,0.0,0
18.0,18.0,-14.0,-10.0,-10.0,-9.0,-19.0,-1.0,0.0,0.0,0.0,0.0,0.0,0.0,0.0,0.0,0
2.0,1.0,-13.0,-4.0,-10.0,-9.0,-24.0,4.0,0.0,0.0,0.0,0.0,0.0,0.0,0.0,0.0,0
-4.0,-7.0,-9.0,0.0,-7.0,-12.0,-13.0,8.0,0.0,0.0,0.0,0.0,0.0,0.0,0.0,0.0,0
-6.0,-16.0,-4.0,3.0,6.0,-13.0,-6.0,-1.0,0.0,0.0,0.0,0.0,0.0,0.0,0.0,0.0,0
-2.0,-27.0,-5.0,-1.0,2.0,-11.0,-8.0,-2.0,0.0,0.0,0.0,0.0,0.0,0.0,0.0,0.0,0
-21.0,-33.0,-7.0,5.0,-4.0,-10.0,9.0,-6.0,0.0,0.0,0.0,0.0,0.0,0.0,0.0,0.0,0
-36.0,-33.0,-2.0,12.0,-1.0,2.0,10.0,-9.0,0.0,0.0,0.0,0.0,0.0,0.0,0.0,0.0,0
-19.0,-11.0,13.0,14.0,3.0,3.0,17.0,-9.0,0.0,0.0,0.0,0.0,0.0,0.0,0.0,0.0,0
-9.0,23.0,26.0,10.0,4.0,14.0,19.0,-14.0,0.0,0.0,0.0,0.0,0.0,0.0,0.0,0.0,0
4.0,33.0,15.0,-5.0,0.0,15.0,16.0,-11.0,0.0,0.0,0.0,0.0,0.0,0.0,0.0,0.0,0
21.0,24.0,6.0,-6.0,3.0,10.0,5.0,-5.0,0.0,0.0,0.0,0.0,0.0,0.0,0.0,0.0,0
18.0,25.0,8.0,-5.0,1.0,2.0,8.0,0.0,0.0,0.0,0.0,0.0,0.0,0.0,0.0,0.0,0
-5.0,22.0,5.0,-12.0,-2.0,-11.0,10.0,-4.0,0.0,0.0,0.0,0.0,0.0,0.0,0.0,0.0,0
-6.0,34.0,-3.0,-19.0,-11.0,-8.0,-6.0,-6.0,0.0,0.0,0.0,0.0,0.0,0.0,0.0,0.0,0
-5.0,31.0,-5.0,-22.0,-13.0,-2.0,-9.0,-4.0,0.0,0.0,0.0,0.0,0.0,0.0,0.0,0.0,0
-60.0,-42.0,-6.0,-13.0,-12.0,7.0,0.0,-1.0,0.0,0.0,0.0,0.0,0.0,0.0,0.0,0.0,0
-103.0,-108.0,-18.0,-6.0,-4.0,-1.0,-4.0,0.0,0.0,0.0,0.0,0.0,0.0,0.0,0.0,0.0,0
-56.0,-67.0,8.0,20.0,13.0,-4.0,-10.0,4.0,0.0,0.0,0.0,0.0,0.0,0.0,0.0,0.0,0
28.0,2.0,11.0,24.0,16.0,-7.0,-23.0,9.0,0.0,0.0,0.0,0.0,0.0,0.0,0.0,0.0,0
67.0,21.0,-23.0,0.0,-1.0,-11.0,-18.0,4.0,0.0,0.0,0.0,0.0,0.0,0.0,0.0,0.0,0
92.0,30.0,-27.0,-5.0,-5.0,-7.0,-14.0,2.0,0.0,0.0,0.0,0.0,0.0,0.0,0.0,0.0,0
94.0,26.0,-19.0,-11.0,-9.0,-8.0,-16.0,6.0,0.0,0.0,0.0,0.0,0.0,0.0,0.0,0.0,0
51.0,3.0,-25.0,-14.0,-14.0,-16.0,-21.0,-2.0,0.0,0.0,0.0,0.0,0.0,0.0,0.0,0.0,0
-2.0,-17.0,-33.0,-6.0,-11.0,-12.0,-17.0,-4.0,0.0,0.0,0.0,0.0,0.0,0.0,0.0,0.0,0
-24.0,-3.0,-17.0,-3.0,-4.0,-10.0,-8.0,-2.0,0.0,0.0,0.0,0.0,0.0,0.0,0.0,0.0,0
-44.0,5.0,10.0,2.0,0.0,-4.0,8.0,-9.0,0.0,0.0,0.0,0.0,0.0,0.0,0.0,0.0,0
-48.0,0.0,17.0,1.0,3.0,0.0,12.0,-3.0,0.0,0.0,0.0,0.0,0.0,0.0,0.0,0.0,0
-46.0,-7.0,20.0,1.0,7.0,7.0,19.0,-7.0,0.0,0.0,0.0,0.0,0.0,0.0,0.0,0.0,0
-34.0,-8.0,26.0,5.0,5.0,12.0,21.0,-13.0,0.0,0.0,0.0,0.0,0.0,0.0,0.0,0.0,0
-6.0,-4.0,29.0,7.0,2.0,7.0,18.0,-6.0,0.0,0.0,0.0,0.0,0.0,0.0,0.0,0.0,0
5.0,6.0,22.0,1.0,-10.0,3.0,5.0,-8.0,0.0,0.0,0.0,0.0,0.0,0.0,0.0,0.0,0
-14.0,5.0,20.0,-10.0,-9.0,-2.0,2.0,-8.0,0.0,0.0,0.0,0.0,0.0,0.0,0.0,0.0,0
-22.0,-7.0,4.0,-11.0,-6.0,-5.0,1.0,-4.0,0.0,0.0,0.0,0.0,0.0,0.0,0.0,0.0,0
-14.0,-9.0,-12.0,-11.0,5.0,4.0,-1.0,-4.0,0.0,0.0,0.0,0.0,0.0,0.0,0.0,0.0,0
-9.0,-10.0,-24.0,-1.0,4.0,9.0,-3.0,-6.0,0.0,0.0,0.0,0.0,0.0,0.0,0.0,0.0,0
-2.0,2.0,-23.0,-2.0,1.0,3.0,-7.0,-4.0,0.0,0.0,0.0,0.0,0.0,0.0,0.0,0.0,0
1.0,9.0,-9.0,-5.0,-5.0,-9.0,-5.0,-5.0,0.0,0.0,0.0,0.0,0.0,0.0,0.0,0.0,0
12.0,15.0,-8.0,-6.0,-9.0,-15.0,-12.0,2.0,0.0,0.0,0.0,0.0,0.0,0.0,0.0,0.0,0
32.0,15.0,-13.0,-2.0,-9.0,-15.0,-22.0,13.0,0.0,0.0,0.0,0.0,0.0,0.0,0.0,0.0,0
39.0,4.0,-13.0,3.0,-5.0,-15.0,-15.0,5.0,0.0,0.0,0.0,0.0,0.0,0.0,0.0,0.0,0
26.0,-25.0,-6.0,1.0,-5.0,-8.0,-10.0,0.0,0.0,0.0,0.0,0.0,0.0,0.0,0.0,0.0,0
15.0,-45.0,-22.0,-3.0,-6.0,2.0,-14.0,6.0,0.0,0.0,0.0,0.0,0.0,0.0,0.0,0.0,0
0.0,-37.0,-26.0,-15.0,-1.0,-3.0,-19.0,3.0,0.0,0.0,0.0,0.0,0.0,0.0,0.0,0.0,0
-7.0,-21.0,-15.0,-11.0,-1.0,-2.0,-16.0,3.0,0.0,0.0,0.0,0.0,0.0,0.0,0.0,0.0,0
-3.0,-8.0,-7.0,-7.0,-3.0,-2.0,-5.0,2.0,0.0,0.0,0.0,0.0,0.0,0.0,0.0,0.0,0
-12.0,13.0,11.0,-5.0,1.0,2.0,10.0,-4.0,0.0,0.0,0.0,0.0,0.0,0.0,0.0,0.0,0
-17.0,32.0,19.0,4.0,-5.0,0.0,6.0,-18.0,0.0,0.0,0.0,0.0,0.0,0.0,0.0,0.0,0
-13.0,21.0,20.0,7.0,-7.0,-3.0,5.0,-14.0,0.0,0.0,0.0,0.0,0.0,0.0,0.0,0.0,0
-25.0,7.0,19.0,11.0,4.0,-2.0,17.0,-10.0,0.0,0.0,0.0,0.0,0.0,0.0,0.0,0.0,0
-25.0,-8.0,14.0,13.0,5.0,3.0,23.0,-3.0,0.0,0.0,0.0,0.0,0.0,0.0,0.0,0.0,0
-15.0,-10.0,9.0,6.0,2.0,4.0,12.0,-8.0,0.0,0.0,0.0,0.0,0.0,0.0,0.0,0.0,0
-28.0,-11.0,4.0,3.0,0.0,7.0,12.0,-8.0,0.0,0.0,0.0,0.0,0.0,0.0,0.0,0.0,0
-15.0,-10.0,-4.0,-2.0,2.0,5.0,3.0,-4.0,0.0,0.0,0.0,0.0,0.0,0.0,0.0,0.0,0
3.0,0.0,-4.0,-17.0,-2.0,5.0,2.0,-1.0,0.0,0.0,0.0,0.0,0.0,0.0,0.0,0.0,0
8.0,13.0,-8.0,-28.0,-15.0,0.0,-7.0,0.0,0.0,0.0,0.0,0.0,0.0,0.0,0.0,0.0,0
6.0,24.0,-3.0,-29.0,-18.0,-9.0,-8.0,-8.0,0.0,0.0,0.0,0.0,0.0,0.0,0.0,0.0,0
15.0,31.0,0.0,-18.0,-6.0,-7.0,-18.0,-1.0,0.0,0.0,0.0,0.0,0.0,0.0,0.0,0.0,0
24.0,20.0,-3.0,1.0,3.0,-2.0,-15.0,1.0,0.0,0.0,0.0,0.0,0.0,0.0,0.0,0.0,0
22.0,-5.0,-17.0,16.0,3.0,-14.0,-25.0,8.0,0.0,0.0,0.0,0.0,0.0,0.0,0.0,0.0,0
10.0,-25.0,-19.0,18.0,2.0,-15.0,-11.0,7.0,0.0,0.0,0.0,0.0,0.0,0.0,0.0,0.0,0
-8.0,-49.0,-19.0,12.0,-1.0,-7.0,-12.0,5.0,0.0,0.0,0.0,0.0,0.0,0.0,0.0,0.0,0
-3.0,-69.0,-26.0,6.0,3.0,-8.0,-15.0,9.0,0.0,0.0,0.0,0.0,0.0,0.0,0.0,0.0,0
2.0,-38.0,-12.0,12.0,4.0,-6.0,-16.0,0.0,0.0,0.0,0.0,0.0,0.0,0.0,0.0,0.0,0
10.0,-19.0,-3.0,6.0,-2.0,-12.0,-5.0,-3.0,0.0,0.0,0.0,0.0,0.0,0.0,0.0,0.0,0
14.0,-3.0,-8.0,-14.0,-5.0,-8.0,1.0,2.0,0.0,0.0,0.0,0.0,0.0,0.0,0.0,0.0,0
12.0,34.0,8.0,-17.0,-5.0,-3.0,3.0,-1.0,0.0,0.0,0.0,0.0,0.0,0.0,0.0,0.0,0
8.0,62.0,3.0,-12.0,-10.0,3.0,2.0,-11.0,0.0,0.0,0.0,0.0,0.0,0.0,0.0,0.0,0
-8.0,50.0,2.0,-10.0,-4.0,9.0,11.0,-12.0,0.0,0.0,0.0,0.0,0.0,0.0,0.0,0.0,0
-44.0,-2.0,4.0,-6.0,-13.0,6.0,16.0,-14.0,0.0,0.0,0.0,0.0,0.0,0.0,0.0,0.0,0
-62.0,-40.0,4.0,-19.0,-21.0,0.0,9.0,-15.0,0.0,0.0,0.0,0.0,0.0,0.0,0.0,0.0,0
-27.0,-21.0,5.0,-18.0,-13.0,-12.0,-1.0,-9.0,0.0,0.0,0.0,0.0,0.0,0.0,0.0,0.0,0
-14.0,5.0,22.0,4.0,1.0,4.0,4.0,-2.0,0.0,0.0,0.0,0.0,0.0,0.0,0.0,0.0,0
-30.0,7.0,30.0,4.0,15.0,9.0,7.0,1.0,0.0,0.0,0.0,0.0,0.0,0.0,0.0,0.0,0
-16.0,-2.0,12.0,4.0,11.0,5.0,10.0,0.0,0.0,0.0,0.0,0.0,0.0,0.0,0.0,0.0,0
27.0,2.0,-1.0,11.0,11.0,7.0,2.0,2.0,0.0,0.0,0.0,0.0,0.0,0.0,0.0,0.0,0
36.0,3.0,-3.0,14.0,8.0,-1.0,1.0,-2.0,0.0,0.0,0.0,0.0,0.0,0.0,0.0,0.0,0
20.0,8.0,-12.0,4.0,2.0,-1.0,-4.0,-3.0,0.0,0.0,0.0,0.0,0.0,0.0,0.0,0.0,0
18.0,0.0,-24.0,-7.0,-10.0,0.0,-14.0,0.0,0.0,0.0,0.0,0.0,0.0,0.0,0.0,0.0,0
12.0,-2.0,-35.0,-11.0,-12.0,-10.0,-27.0,0.0,0.0,0.0,0.0,0.0,0.0,0.0,0.0,0.0,0
-4.0,-9.0,-28.0,-6.0,-7.0,-11.0,-17.0,2.0,0.0,0.0,0.0,0.0,0.0,0.0,0.0,0.0,0
-12.0,-18.0,-10.0,0.0,-6.0,-17.0,-14.0,6.0,0.0,0.0,0.0,0.0,0.0,0.0,0.0,0.0,0
2.0,-18.0,-14.0,2.0,-11.0,-18.0,-21.0,5.0,0.0,0.0,0.0,0.0,0.0,0.0,0.0,0.0,0
-1.0,-27.0,-21.0,-8.0,-12.0,-5.0,-17.0,3.0,0.0,0.0,0.0,0.0,0.0,0.0,0.0,0.0,0
-1.0,-2.0,12.0,5.0,-4.0,-9.0,-9.0,2.0,0.0,0.0,0.0,0.0,0.0,0.0,0.0,0.0,0
17.0,-1.0,17.0,-4.0,1.0,-10.0,-9.0,-4.0,0.0,0.0,0.0,0.0,0.0,0.0,0.0,0.0,0
10.0,-14.0,-3.0,-14.0,-10.0,-1.0,4.0,-3.0,0.0,0.0,0.0,0.0,0.0,0.0,0.0,0.0,0
11.0,-1.0,-5.0,-5.0,-8.0,5.0,18.0,-12.0,0.0,0.0,0.0,0.0,0.0,0.0,0.0,0.0,0
17.0,34.0,12.0,0.0,4.0,10.0,16.0,-11.0,0.0,0.0,0.0,0.0,0.0,0.0,0.0,0.0,0
7.0,53.0,31.0,6.0,6.0,6.0,18.0,-10.0,0.0,0.0,0.0,0.0,0.0,0.0,0.0,0.0,0
-30.0,32.0,32.0,11.0,9.0,11.0,16.0,-8.0,0.0,0.0,0.0,0.0,0.0,0.0,0.0,0.0,0
-72.0,-30.0,10.0,8.0,13.0,9.0,4.0,-3.0,0.0,0.0,0.0,0.0,0.0,0.0,0.0,0.0,0
-78.0,-58.0,-2.0,7.0,12.0,3.0,11.0,-9.0,0.0,0.0,0.0,0.0,0.0,0.0,0.0,0.0,0
-54.0,-30.0,-6.0,5.0,10.0,7.0,8.0,-10.0,0.0,0.0,0.0,0.0,0.0,0.0,0.0,0.0,0
-19.0,-14.0,-8.0,-4.0,3.0,-2.0,-3.0,-1.0,0.0,0.0,0.0,0.0,0.0,0.0,0.0,0.0,0
-1.0,-13.0,-22.0,-16.0,-16.0,-10.0,-8.0,1.0,0.0,0.0,0.0,0.0,0.0,0.0,0.0,0.0,0
24.0,4.0,-17.0,-19.0,-17.0,-3.0,-3.0,-1.0,0.0,0.0,0.0,0.0,0.0,0.0,0.0,0.0,0
44.0,33.0,-1.0,-16.0,-11.0,-1.0,-3.0,6.0,0.0,0.0,0.0,0.0,0.0,0.0,0.0,0.0,0
57.0,32.0,-5.0,-11.0,-7.0,-5.0,-10.0,2.0,0.0,0.0,0.0,0.0,0.0,0.0,0.0,0.0,0
47.0,12.0,-16.0,-11.0,-15.0,-6.0,-23.0,-1.0,0.0,0.0,0.0,0.0,0.0,0.0,0.0,0.0,0
26.0,-4.0,-9.0,-17.0,-19.0,-20.0,-22.0,-1.0,0.0,0.0,0.0,0.0,0.0,0.0,0.0,0.0,0
11.0,-16.0,-7.0,-11.0,-11.0,-12.0,-22.0,2.0,0.0,0.0,0.0,0.0,0.0,0.0,0.0,0.0,0
10.0,-25.0,-18.0,-4.0,-7.0,-11.0,-25.0,2.0,0.0,0.0,0.0,0.0,0.0,0.0,0.0,0.0,0
-8.0,-41.0,-30.0,-3.0,-3.0,-11.0,-11.0,0.0,0.0,0.0,0.0,0.0,0.0,0.0,0.0,0.0,0
-22.0,-33.0,-25.0,3.0,9.0,-3.0,-5.0,4.0,0.0,0.0,0.0,0.0,0.0,0.0,0.0,0.0,0
-11.0,-17.0,-16.0,7.0,12.0,-3.0,-2.0,6.0,0.0,0.0,0.0,0.0,0.0,0.0,0.0,0.0,0
-7.0,31.0,8.0,15.0,14.0,1.0,9.0,-5.0,0.0,0.0,0.0,0.0,0.0,0.0,0.0,0.0,0
-4.0,63.0,29.0,20.0,8.0,2.0,19.0,-13.0,0.0,0.0,0.0,0.0,0.0,0.0,0.0,0.0,0
-10.0,40.0,35.0,18.0,4.0,5.0,15.0,-6.0,0.0,0.0,0.0,0.0,0.0,0.0,0.0,0.0,0
-23.0,1.0,32.0,17.0,0.0,12.0,18.0,-4.0,0.0,0.0,0.0,0.0,0.0,0.0,0.0,0.0,0
-16.0,-19.0,26.0,6.0,-2.0,13.0,15.0,-4.0,0.0,0.0,0.0,0.0,0.0,0.0,0.0,0.0,0
-24.0,-39.0,7.0,-7.0,3.0,9.0,6.0,-12.0,0.0,0.0,0.0,0.0,0.0,0.0,0.0,0.0,0
-32.0,-46.0,-13.0,-8.0,1.0,6.0,3.0,-14.0,0.0,0.0,0.0,0.0,0.0,0.0,0.0,0.0,0
-30.0,-37.0,-21.0,-18.0,-6.0,-1.0,-1.0,-6.0,0.0,0.0,0.0,0.0,0.0,0.0,0.0,0.0,0
-15.0,7.0,-5.0,-19.0,-5.0,-9.0,-2.0,-4.0,0.0,0.0,0.0,0.0,0.0,0.0,0.0,0.0,0
-1.0,26.0,-5.0,-17.0,-10.0,-10.0,0.0,0.0,0.0,0.0,0.0,0.0,0.0,0.0,0.0,0.0,0
4.0,25.0,-9.0,-18.0,-10.0,-6.0,-9.0,2.0,0.0,0.0,0.0,0.0,0.0,0.0,0.0,0.0,0
8.0,24.0,1.0,-10.0,-1.0,4.0,-11.0,-3.0,0.0,0.0,0.0,0.0,0.0,0.0,0.0,0.0,0
10.0,16.0,3.0,-10.0,-4.0,0.0,-13.0,-3.0,0.0,0.0,0.0,0.0,0.0,0.0,0.0,0.0,0
41.0,5.0,-8.0,-3.0,-15.0,-9.0,-17.0,1.0,0.0,0.0,0.0,0.0,0.0,0.0,0.0,0.0,0
44.0,-22.0,-16.0,1.0,-9.0,-14.0,-20.0,1.0,0.0,0.0,0.0,0.0,0.0,0.0,0.0,0.0,0
16.0,-24.0,-14.0,9.0,-7.0,-12.0,-17.0,7.0,0.0,0.0,0.0,0.0,0.0,0.0,0.0,0.0,0
12.0,-21.0,-19.0,2.0,-5.0,-9.0,-14.0,9.0,0.0,0.0,0.0,0.0,0.0,0.0,0.0,0.0,0
0.0,-27.0,-33.0,-2.0,-2.0,-10.0,-13.0,7.0,0.0,0.0,0.0,0.0,0.0,0.0,0.0,0.0,0
1.0,-21.0,-19.0,3.0,11.0,-4.0,-6.0,4.0,0.0,0.0,0.0,0.0,0.0,0.0,0.0,0.0,0
4.0,-9.0,-2.0,8.0,16.0,-2.0,-1.0,-4.0,0.0,0.0,0.0,0.0,0.0,0.0,0.0,0.0,0
-16.0,5.0,6.0,11.0,3.0,-1.0,9.0,-7.0,0.0,0.0,0.0,0.0,0.0,0.0,0.0,0.0,0
-29.0,11.0,8.0,2.0,-3.0,2.0,9.0,-7.0,0.0,0.0,0.0,0.0,0.0,0.0,0.0,0.0,0
-30.0,4.0,6.0,-6.0,-2.0,0.0,8.0,-9.0,0.0,0.0,0.0,0.0,0.0,0.0,0.0,0.0,0
-29.0,15.0,23.0,-8.0,-2.0,7.0,14.0,-11.0,0.0,0.0,0.0,0.0,0.0,0.0,0.0,0.0,0
-16.0,15.0,25.0,-10.0,-5.0,5.0,21.0,-7.0,0.0,0.0,0.0,0.0,0.0,0.0,0.0,0.0,0
-11.0,9.0,11.0,-24.0,-17.0,-5.0,6.0,-10.0,0.0,0.0,0.0,0.0,0.0,0.0,0.0,0.0,0
-14.0,9.0,12.0,-16.0,-18.0,-8.0,-2.0,-13.0,0.0,0.0,0.0,0.0,0.0,0.0,0.0,0.0,0
-11.0,10.0,19.0,3.0,0.0,-4.0,5.0,-7.0,0.0,0.0,0.0,0.0,0.0,0.0,0.0,0.0,0
-7.0,-1.0,11.0,4.0,14.0,3.0,3.0,-3.0,0.0,0.0,0.0,0.0,0.0,0.0,0.0,0.0,0
0.0,-17.0,-18.0,0.0,12.0,12.0,-2.0,-4.0,0.0,0.0,0.0,0.0,0.0,0.0,0.0,0.0,0
-4.0,-24.0,-28.0,-1.0,4.0,3.0,-1.0,6.0,0.0,0.0,0.0,0.0,0.0,0.0,0.0,0.0,0
-1.0,-30.0,-31.0,-5.0,3.0,2.0,-5.0,11.0,0.0,0.0,0.0,0.0,0.0,0.0,0.0,0.0,0
8.0,-10.0,-19.0,2.0,-1.0,-1.0,-17.0,6.0,0.0,0.0,0.0,0.0,0.0,0.0,0.0,0.0,0
23.0,9.0,-7.0,4.0,0.0,-4.0,-23.0,10.0,0.0,0.0,0.0,0.0,0.0,0.0,0.0,0.0,0
32.0,31.0,8.0,12.0,-12.0,-9.0,-20.0,-1.0,0.0,0.0,0.0,0.0,0.0,0.0,0.0,0.0,0
29.0,27.0,16.0,4.0,-19.0,-20.0,-19.0,-1.0,0.0,0.0,0.0,0.0,0.0,0.0,0.0,0.0,0
36.0,22.0,-4.0,0.0,-14.0,-17.0,-21.0,-2.0,0.0,0.0,0.0,0.0,0.0,0.0,0.0,0.0,0
23.0,-12.0,-11.0,-5.0,-4.0,-12.0,-17.0,-7.0,0.0,0.0,0.0,0.0,0.0,0.0,0.0,0.0,0
-2.0,-59.0,-22.0,-11.0,-1.0,-11.0,0.0,0.0,0.0,0.0,0.0,0.0,0.0,0.0,0.0,0.0,0
-16.0,-52.0,-16.0,-8.0,-2.0,-10.0,4.0,6.0,0.0,0.0,0.0,0.0,0.0,0.0,0.0,0.0,0
-39.0,-32.0,-11.0,-6.0,-2.0,-3.0,1.0,3.0,0.0,0.0,0.0,0.0,0.0,0.0,0.0,0.0,0
-55.0,-36.0,-9.0,-9.0,-3.0,8.0,3.0,-15.0,0.0,0.0,0.0,0.0,0.0,0.0,0.0,0.0,0
-39.0,-3.0,4.0,-6.0,5.0,0.0,17.0,-12.0,0.0,0.0,0.0,0.0,0.0,0.0,0.0,0.0,0
-21.0,38.0,20.0,3.0,7.0,6.0,22.0,-6.0,0.0,0.0,0.0,0.0,0.0,0.0,0.0,0.0,0
-9.0,42.0,20.0,2.0,12.0,11.0,14.0,-4.0,0.0,0.0,0.0,0.0,0.0,0.0,0.0,0.0,0
14.0,38.0,14.0,-8.0,1.0,5.0,3.0,-6.0,0.0,0.0,0.0,0.0,0.0,0.0,0.0,0.0,0
6.0,29.0,7.0,-13.0,-12.0,2.0,7.0,-8.0,0.0,0.0,0.0,0.0,0.0,0.0,0.0,0.0,0
5.0,12.0,6.0,-5.0,-13.0,-1.0,6.0,-7.0,0.0,0.0,0.0,0.0,0.0,0.0,0.0,0.0,0
1.0,-10.0,-6.0,0.0,-10.0,-7.0,-4.0,-10.0,0.0,0.0,0.0,0.0,0.0,0.0,0.0,0.0,0
2.0,-17.0,-2.0,10.0,-4.0,-2.0,-14.0,-1.0,0.0,0.0,0.0,0.0,0.0,0.0,0.0,0.0,0
-3.0,-21.0,8.0,9.0,2.0,2.0,-2.0,2.0,0.0,0.0,0.0,0.0,0.0,0.0,0.0,0.0,0
-18.0,-26.0,3.0,6.0,8.0,3.0,-6.0,3.0,0.0,0.0,0.0,0.0,0.0,0.0,0.0,0.0,0
-5.0,-21.0,-16.0,-4.0,0.0,-1.0,-10.0,0.0,0.0,0.0,0.0,0.0,0.0,0.0,0.0,0.0,0
21.0,2.0,-28.0,-14.0,-7.0,-11.0,-16.0,-1.0,0.0,0.0,0.0,0.0,0.0,0.0,0.0,0.0,0
20.0,1.0,-17.0,-11.0,-4.0,-6.0,-10.0,8.0,0.0,0.0,0.0,0.0,0.0,0.0,0.0,0.0,0
9.0,-3.0,-13.0,-13.0,-3.0,-11.0,-12.0,10.0,0.0,0.0,0.0,0.0,0.0,0.0,0.0,0.0,0
16.0,-8.0,-17.0,-11.0,-8.0,-16.0,-18.0,11.0,0.0,0.0,0.0,0.0,0.0,0.0,0.0,0.0,0
18.0,-8.0,-15.0,-5.0,-14.0,-11.0,-19.0,1.0,0.0,0.0,0.0,0.0,0.0,0.0,0.0,0.0,0
24.0,-9.0,-19.0,-8.0,-11.0,-8.0,-14.0,-6.0,0.0,0.0,0.0,0.0,0.0,0.0,0.0,0.0,0
27.0,-3.0,-13.0,-1.0,-13.0,-11.0,-6.0,-7.0,0.0,0.0,0.0,0.0,0.0,0.0,0.0,0.0,0
1.0,0.0,18.0,17.0,4.0,-6.0,9.0,-3.0,0.0,0.0,0.0,0.0,0.0,0.0,0.0,0.0,0
-36.0,-4.0,28.0,18.0,13.0,5.0,14.0,-3.0,0.0,0.0,0.0,0.0,0.0,0.0,0.0,0.0,0
-57.0,-7.0,21.0,9.0,7.0,5.0,10.0,-8.0,0.0,0.0,0.0,0.0,0.0,0.0,0.0,0.0,0
-35.0,12.0,14.0,-1.0,4.0,5.0,18.0,-13.0,0.0,0.0,0.0,0.0,0.0,0.0,0.0,0.0,0
-21.0,16.0,3.0,-3.0,4.0,7.0,14.0,-17.0,0.0,0.0,0.0,0.0,0.0,0.0,0.0,0.0,0
-32.0,-4.0,-2.0,-4.0,1.0,7.0,10.0,-8.0,0.0,0.0,0.0,0.0,0.0,0.0,0.0,0.0,0
-18.0,-2.0,2.0,-7.0,2.0,3.0,10.0,-4.0,0.0,0.0,0.0,0.0,0.0,0.0,0.0,0.0,0
3.0,9.0,8.0,-7.0,-2.0,-1.0,10.0,1.0,0.0,0.0,0.0,0.0,0.0,0.0,0.0,0.0,0
7.0,-14.0,2.0,-8.0,-6.0,1.0,-1.0,2.0,0.0,0.0,0.0,0.0,0.0,0.0,0.0,0.0,0
6.0,-11.0,-12.0,-8.0,-2.0,-2.0,-8.0,0.0,0.0,0.0,0.0,0.0,0.0,0.0,0.0,0.0,0
14.0,-3.0,-11.0,-5.0,-5.0,-7.0,-9.0,-9.0,0.0,0.0,0.0,0.0,0.0,0.0,0.0,0.0,0
14.0,9.0,-9.0,0.0,-4.0,-6.0,-11.0,-8.0,0.0,0.0,0.0,0.0,0.0,0.0,0.0,0.0,0
10.0,12.0,-10.0,-6.0,-4.0,-4.0,-14.0,1.0,0.0,0.0,0.0,0.0,0.0,0.0,0.0,0.0,0
4.0,9.0,-7.0,2.0,-13.0,-6.0,-20.0,4.0,0.0,0.0,0.0,0.0,0.0,0.0,0.0,0.0,0
8.0,-3.0,-7.0,-4.0,-15.0,-7.0,-18.0,3.0,0.0,0.0,0.0,0.0,0.0,0.0,0.0,0.0,0
21.0,-5.0,-13.0,-10.0,-6.0,-8.0,-16.0,7.0,0.0,0.0,0.0,0.0,0.0,0.0,0.0,0.0,0
30.0,-8.0,-22.0,-21.0,-8.0,-10.0,-20.0,10.0,0.0,0.0,0.0,0.0,0.0,0.0,0.0,0.0,0
20.0,-16.0,-32.0,-19.0,-10.0,-12.0,-13.0,7.0,0.0,0.0,0.0,0.0,0.0,0.0,0.0,0.0,0
-1.0,-22.0,-28.0,-11.0,-2.0,-15.0,-10.0,-3.0,0.0,0.0,0.0,0.0,0.0,0.0,0.0,0.0,0
6.0,-17.0,-25.0,-5.0,-2.0,-8.0,-5.0,-9.0,0.0,0.0,0.0,0.0,0.0,0.0,0.0,0.0,0
-8.0,-5.0,-2.0,2.0,0.0,-4.0,7.0,-12.0,0.0,0.0,0.0,0.0,0.0,0.0,0.0,0.0,0
-30.0,-21.0,14.0,24.0,7.0,0.0,12.0,-10.0,0.0,0.0,0.0,0.0,0.0,0.0,0.0,0.0,0
-45.0,-14.0,42.0,38.0,15.0,8.0,11.0,-4.0,0.0,0.0,0.0,0.0,0.0,0.0,0.0,0.0,0
-46.0,23.0,65.0,39.0,15.0,13.0,25.0,-10.0,0.0,0.0,0.0,0.0,0.0,0.0,0.0,0.0,0
-25.0,45.0,49.0,18.0,6.0,9.0,29.0,-9.0,0.0,0.0,0.0,0.0,0.0,0.0,0.0,0.0,0
5.0,34.0,29.0,4.0,-6.0,5.0,5.0,-4.0,0.0,0.0,0.0,0.0,0.0,0.0,0.0,0.0,0
14.0,12.0,18.0,5.0,-2.0,4.0,3.0,-3.0,0.0,0.0,0.0,0.0,0.0,0.0,0.0,0.0,0
3.0,-14.0,0.0,-16.0,2.0,8.0,-2.0,-7.0,0.0,0.0,0.0,0.0,0.0,0.0,0.0,0.0,0
-8.0,-28.0,-28.0,-34.0,-9.0,-3.0,-5.0,-1.0,0.0,0.0,0.0,0.0,0.0,0.0,0.0,0.0,0
-11.0,-32.0,-37.0,-46.0,-14.0,-3.0,-9.0,-2.0,0.0,0.0,0.0,0.0,0.0,0.0,0.0,0.0,0
-15.0,-32.0,-58.0,-56.0,-16.0,-6.0,-9.0,-8.0,0.0,0.0,0.0,0.0,0.0,0.0,0.0,0.0,0
6.0,-13.0,-74.0,-49.0,-15.0,-12.0,-13.0,-6.0,0.0,0.0,0.0,0.0,0.0,0.0,0.0,0.0,0
11.0,-27.0,-58.0,-23.0,-18.0,-4.0,-19.0,-4.0,0.0,0.0,0.0,0.0,0.0,0.0,0.0,0.0,0
16.0,-2.0,-24.0,7.0,-4.0,-5.0,-16.0,5.0,0.0,0.0,0.0,0.0,0.0,0.0,0.0,0.0,0
5.0,45.0,28.0,45.0,-1.0,-3.0,-13.0,9.0,0.0,0.0,0.0,0.0,0.0,0.0,0.0,0.0,0
15.0,71.0,64.0,58.0,8.0,-3.0,-12.0,3.0,0.0,0.0,0.0,0.0,0.0,0.0,0.0,0.0,0
38.0,46.0,59.0,25.0,7.0,-11.0,-17.0,6.0,0.0,0.0,0.0,0.0,0.0,0.0,0.0,0.0,0
30.0,6.0,18.0,1.0,2.0,-13.0,-16.0,5.0,0.0,0.0,0.0,0.0,0.0,0.0,0.0,0.0,0
11.0,-23.0,-5.0,-9.0,1.0,-12.0,-8.0,4.0,0.0,0.0,0.0,0.0,0.0,0.0,0.0,0.0,0
-6.0,-57.0,-24.0,-14.0,-3.0,-10.0,-9.0,3.0,0.0,0.0,0.0,0.0,0.0,0.0,0.0,0.0,0
-16.0,-70.0,-38.0,-19.0,-13.0,0.0,11.0,-12.0,0.0,0.0,0.0,0.0,0.0,0.0,0.0,0.0,0
-8.0,-57.0,-31.0,-17.0,-6.0,4.0,17.0,-12.0,0.0,0.0,0.0,0.0,0.0,0.0,0.0,0.0,0
-24.0,-44.0,-9.0,-3.0,-1.0,1.0,12.0,-6.0,0.0,0.0,0.0,0.0,0.0,0.0,0.0,0.0,0
-51.0,-9.0,16.0,5.0,5.0,4.0,18.0,-2.0,0.0,0.0,0.0,0.0,0.0,0.0,0.0,0.0,0
-48.0,29.0,21.0,5.0,7.0,15.0,19.0,-4.0,0.0,0.0,0.0,0.0,0.0,0.0,0.0,0.0,0
-23.0,53.0,17.0,8.0,5.0,9.0,11.0,-7.0,0.0,0.0,0.0,0.0,0.0,0.0,0.0,0.0,0
-12.0,48.0,10.0,1.0,-4.0,5.0,6.0,-11.0,0.0,0.0,0.0,0.0,0.0,0.0,0.0,0.0,0
3.0,37.0,12.0,-6.0,-1.0,-1.0,2.0,-11.0,0.0,0.0,0.0,0.0,0.0,0.0,0.0,0.0,0
15.0,21.0,5.0,-13.0,-3.0,-1.0,-4.0,-8.0,0.0,0.0,0.0,0.0,0.0,0.0,0.0,0.0,0
21.0,0.0,7.0,-7.0,-5.0,0.0,-7.0,0.0,0.0,0.0,0.0,0.0,0.0,0.0,0.0,0.0,0
13.0,-11.0,8.0,4.0,-4.0,-5.0,-4.0,3.0,0.0,0.0,0.0,0.0,0.0,0.0,0.0,0.0,0
5.0,-7.0,5.0,8.0,-3.0,-4.0,0.0,3.0,0.0,0.0,0.0,0.0,0.0,0.0,0.0,0.0,0
7.0,-13.0,-14.0,-3.0,5.0,-8.0,-11.0,3.0,0.0,0.0,0.0,0.0,0.0,0.0,0.0,0.0,0
8.0,-26.0,-27.0,-8.0,-1.0,-11.0,-21.0,1.0,0.0,0.0,0.0,0.0,0.0,0.0,0.0,0.0,0
3.0,-31.0,-28.0,-8.0,-8.0,-6.0,-20.0,2.0,0.0,0.0,0.0,0.0,0.0,0.0,0.0,0.0,0
9.0,-16.0,-25.0,-8.0,-12.0,-8.0,-24.0,4.0,0.0,0.0,0.0,0.0,0.0,0.0,0.0,0.0,0
19.0,-8.0,-22.0,-5.0,-9.0,-12.0,-22.0,7.0,0.0,0.0,0.0,0.0,0.0,0.0,0.0,0.0,0
8.0,-4.0,-18.0,-4.0,-10.0,-12.0,-19.0,3.0,0.0,0.0,0.0,0.0,0.0,0.0,0.0,0.0,0
2.0,-13.0,-18.0,-12.0,-4.0,-12.0,-13.0,-8.0,0.0,0.0,0.0,0.0,0.0,0.0,0.0,0.0,0
-3.0,-16.0,-7.0,-12.0,-5.0,-7.0,-7.0,1.0,0.0,0.0,0.0,0.0,0.0,0.0,0.0,0.0,0
-6.0,4.0,16.0,-1.0,-4.0,-1.0,14.0,4.0,0.0,0.0,0.0,0.0,0.0,0.0,0.0,0.0,0
-6.0,29.0,29.0,5.0,-3.0,2.0,16.0,-6.0,0.0,0.0,0.0,0.0,0.0,0.0,0.0,0.0,0
-19.0,9.0,19.0,4.0,3.0,6.0,12.0,-8.0,0.0,0.0,0.0,0.0,0.0,0.0,0.0,0.0,0
-41.0,-10.0,9.0,8.0,8.0,12.0,21.0,-15.0,0.0,0.0,0.0,0.0,0.0,0.0,0.0,0.0,0
-35.0,-15.0,-7.0,1.0,3.0,4.0,25.0,-9.0,0.0,0.0,0.0,0.0,0.0,0.0,0.0,0.0,0
-15.0,-1.0,-1.0,0.0,0.0,1.0,7.0,-6.0,0.0,0.0,0.0,0.0,0.0,0.0,0.0,0.0,0
-5.0,7.0,7.0,1.0,-2.0,1.0,0.0,-5.0,0.0,0.0,0.0,0.0,0.0,0.0,0.0,0.0,0
2.0,24.0,13.0,4.0,0.0,-2.0,0.0,-8.0,0.0,0.0,0.0,0.0,0.0,0.0,0.0,0.0,0
-1.0,30.0,20.0,1.0,1.0,1.0,-5.0,3.0,0.0,0.0,0.0,0.0,0.0,0.0,0.0,0.0,0
4.0,7.0,12.0,4.0,-4.0,6.0,-5.0,0.0,0.0,0.0,0.0,0.0,0.0,0.0,0.0,0.0,0
2.0,-12.0,0.0,-3.0,-1.0,6.0,0.0,-4.0,0.0,0.0,0.0,0.0,0.0,0.0,0.0,0.0,0
5.0,-5.0,-3.0,-2.0,-4.0,-6.0,-1.0,-4.0,0.0,0.0,0.0,0.0,0.0,0.0,0.0,0.0,0
9.0,-7.0,-19.0,-15.0,-1.0,-4.0,-10.0,-2.0,0.0,0.0,0.0,0.0,0.0,0.0,0.0,0.0,0
12.0,-20.0,-39.0,-20.0,-10.0,-17.0,-24.0,4.0,0.0,0.0,0.0,0.0,0.0,0.0,0.0,0.0,0
10.0,-19.0,-28.0,-12.0,-9.0,-15.0,-13.0,5.0,0.0,0.0,0.0,0.0,0.0,0.0,0.0,0.0,0
13.0,-17.0,-24.0,-8.0,-5.0,-18.0,-15.0,-5.0,0.0,0.0,0.0,0.0,0.0,0.0,0.0,0.0,0
19.0,-8.0,-22.0,0.0,-7.0,-12.0,-23.0,3.0,0.0,0.0,0.0,0.0,0.0,0.0,0.0,0.0,0
14.0,-8.0,-8.0,-1.0,-9.0,-13.0,-10.0,6.0,0.0,0.0,0.0,0.0,0.0,0.0,0.0,0.0,0
-3.0,-24.0,-4.0,-6.0,-7.0,-4.0,-10.0,6.0,0.0,0.0,0.0,0.0,0.0,0.0,0.0,0.0,0
-7.0,-24.0,-14.0,-13.0,-14.0,-4.0,-12.0,-2.0,0.0,0.0,0.0,0.0,0.0,0.0,0.0,0.0,0
2.0,3.0,-4.0,-4.0,-5.0,1.0,3.0,-10.0,0.0,0.0,0.0,0.0,0.0,0.0,0.0,0.0,0
3.0,24.0,5.0,9.0,11.0,6.0,14.0,-8.0,0.0,0.0,0.0,0.0,0.0,0.0,0.0,0.0,0
-3.0,26.0,15.0,20.0,9.0,8.0,17.0,-5.0,0.0,0.0,0.0,0.0,0.0,0.0,0.0,0.0,0
-29.0,13.0,37.0,16.0,5.0,9.0,22.0,-12.0,0.0,0.0,0.0,0.0,0.0,0.0,0.0,0.0,0
-44.0,1.0,31.0,6.0,-1.0,5.0,14.0,-9.0,0.0,0.0,0.0,0.0,0.0,0.0,0.0,0.0,0
-26.0,-11.0,14.0,2.0,5.0,4.0,10.0,-8.0,0.0,0.0,0.0,0.0,0.0,0.0,0.0,0.0,0
-38.0,-30.0,-2.0,-1.0,10.0,8.0,11.0,-8.0,0.0,0.0,0.0,0.0,0.0,0.0,0.0,0.0,0
-42.0,-20.0,1.0,-2.0,4.0,7.0,9.0,-6.0,0.0,0.0,0.0,0.0,0.0,0.0,0.0,0.0,0
-20.0,16.0,17.0,2.0,6.0,-6.0,-2.0,-1.0,0.0,0.0,0.0,0.0,0.0,0.0,0.0,0.0,0
10.0,14.0,-3.0,-16.0,-3.0,-6.0,-7.0,0.0,0.0,0.0,0.0,0.0,0.0,0.0,0.0,0.0,0
29.0,11.0,-16.0,-19.0,-5.0,-5.0,-9.0,-1.0,0.0,0.0,0.0,0.0,0.0,0.0,0.0,0.0,0
32.0,6.0,-18.0,-14.0,-7.0,-3.0,-10.0,-2.0,0.0,0.0,0.0,0.0,0.0,0.0,0.0,0.0,0
42.0,10.0,-19.0,-13.0,-10.0,-2.0,-13.0,2.0,0.0,0.0,0.0,0.0,0.0,0.0,0.0,0.0,0
38.0,7.0,-20.0,-4.0,-12.0,-9.0,-20.0,6.0,0.0,0.0,0.0,0.0,0.0,0.0,0.0,0.0,0
13.0,-14.0,-14.0,-4.0,-7.0,-6.0,-18.0,4.0,0.0,0.0,0.0,0.0,0.0,0.0,0.0,0.0,0
-2.0,-27.0,-11.0,2.0,-7.0,-5.0,-17.0,-10.0,0.0,0.0,0.0,0.0,0.0,0.0,0.0,0.0,0
-8.0,-27.0,-23.0,-1.0,-4.0,-6.0,-17.0,-2.0,0.0,0.0,0.0,0.0,0.0,0.0,0.0,0.0,0
1.0,-8.0,-15.0,-5.0,-6.0,-9.0,-19.0,5.0,0.0,0.0,0.0,0.0,0.0,0.0,0.0,0.0,0
10.0,3.0,-7.0,5.0,-5.0,-6.0,-7.0,5.0,0.0,0.0,0.0,0.0,0.0,0.0,0.0,0.0,0
8.0,7.0,1.0,10.0,-3.0,-17.0,4.0,-2.0,0.0,0.0,0.0,0.0,0.0,0.0,0.0,0.0,0
-2.0,13.0,15.0,2.0,0.0,-9.0,4.0,-2.0,0.0,0.0,0.0,0.0,0.0,0.0,0.0,0.0,0
-4.0,20.0,12.0,-2.0,6.0,2.0,8.0,-4.0,0.0,0.0,0.0,0.0,0.0,0.0,0.0,0.0,0
-18.0,-9.0,7.0,-8.0,0.0,3.0,13.0,-13.0,0.0,0.0,0.0,0.0,0.0,0.0,0.0,0.0,0
-42.0,-12.0,11.0,-17.0,1.0,8.0,21.0,-16.0,0.0,0.0,0.0,0.0,0.0,0.0,0.0,0.0,0
-35.0,-28.0,0.0,-18.0,0.0,10.0,21.0,-12.0,0.0,0.0,0.0,0.0,0.0,0.0,0.0,0.0,0
-32.0,-47.0,-6.0,-5.0,-3.0,9.0,7.0,-4.0,0.0,0.0,0.0,0.0,0.0,0.0,0.0,0.0,0
-40.0,-44.0,-3.0,0.0,-3.0,7.0,-1.0,-4.0,0.0,0.0,0.0,0.0,0.0,0.0,0.0,0.0,0
-25.0,-13.0,8.0,12.0,0.0,2.0,2.0,-3.0,0.0,0.0,0.0,0.0,0.0,0.0,0.0,0.0,0
11.0,27.0,16.0,18.0,5.0,1.0,2.0,9.0,0.0,0.0,0.0,0.0,0.0,0.0,0.0,0.0,0
32.0,49.0,15.0,15.0,4.0,0.0,-2.0,-3.0,0.0,0.0,0.0,0.0,0.0,0.0,0.0,0.0,0
29.0,42.0,20.0,11.0,3.0,0.0,-4.0,-3.0,0.0,0.0,0.0,0.0,0.0,0.0,0.0,0.0,0
16.0,24.0,5.0,10.0,0.0,-6.0,-8.0,-9.0,0.0,0.0,0.0,0.0,0.0,0.0,0.0,0.0,0
10.0,43.0,-12.0,-10.0,-13.0,-2.0,-18.0,-7.0,0.0,0.0,0.0,0.0,0.0,0.0,0.0,0.0,0
12.0,30.0,-23.0,-23.0,-11.0,1.0,-22.0,6.0,0.0,0.0,0.0,0.0,0.0,0.0,0.0,0.0,0
6.0,-7.0,-28.0,-26.0,-8.0,-5.0,-15.0,7.0,0.0,0.0,0.0,0.0,0.0,0.0,0.0,0.0,0
-23.0,-53.0,-27.0,-19.0,-5.0,-12.0,-15.0,2.0,0.0,0.0,0.0,0.0,0.0,0.0,0.0,0.0,0
-22.0,-77.0,-19.0,-9.0,-1.0,-15.0,-24.0,6.0,0.0,0.0,0.0,0.0,0.0,0.0,0.0,0.0,0
13.0,-64.0,-19.0,-5.0,-7.0,-16.0,-21.0,4.0,0.0,0.0,0.0,0.0,0.0,0.0,0.0,0.0,0
43.0,-24.0,-21.0,-9.0,-11.0,-15.0,-10.0,2.0,0.0,0.0,0.0,0.0,0.0,0.0,0.0,0.0,0
39.0,-2.0,-10.0,1.0,-7.0,-11.0,-2.0,1.0,0.0,0.0,0.0,0.0,0.0,0.0,0.0,0.0,0
11.0,12.0,5.0,8.0,-6.0,1.0,9.0,-5.0,0.0,0.0,0.0,0.0,0.0,0.0,0.0,0.0,0
-13.0,16.0,4.0,5.0,-1.0,5.0,10.0,-11.0,0.0,0.0,0.0,0.0,0.0,0.0,0.0,0.0,0
-30.0,10.0,20.0,6.0,7.0,5.0,9.0,-12.0,0.0,0.0,0.0,0.0,0.0,0.0,0.0,0.0,0
-46.0,21.0,20.0,4.0,1.0,12.0,16.0,-12.0,0.0,0.0,0.0,0.0,0.0,0.0,0.0,0.0,0
-51.0,16.0,20.0,0.0,-6.0,13.0,19.0,-11.0,0.0,0.0,0.0,0.0,0.0,0.0,0.0,0.0,0
-39.0,19.0,13.0,-7.0,0.0,11.0,14.0,-4.0,0.0,0.0,0.0,0.0,0.0,0.0,0.0,0.0,0
-28.0,11.0,14.0,-13.0,6.0,1.0,7.0,3.0,0.0,0.0,0.0,0.0,0.0,0.0,0.0,0.0,0
1.0,-1.0,-4.0,-6.0,3.0,-11.0,4.0,-2.0,0.0,0.0,0.0,0.0,0.0,0.0,0.0,0.0,0
10.0,-15.0,-8.0,-5.0,-5.0,-7.0,-1.0,-6.0,0.0,0.0,0.0,0.0,0.0,0.0,0.0,0.0,0
14.0,-1.0,-10.0,2.0,2.0,-7.0,-11.0,-7.0,0.0,0.0,0.0,0.0,0.0,0.0,0.0,0.0,0
5.0,-9.0,-9.0,3.0,4.0,1.0,-9.0,-5.0,0.0,0.0,0.0,0.0,0.0,0.0,0.0,0.0,0
2.0,-10.0,3.0,6.0,-4.0,4.0,-6.0,-1.0,0.0,0.0,0.0,0.0,0.0,0.0,0.0,0.0,0
14.0,-10.0,-3.0,8.0,-1.0,-3.0,-10.0,-1.0,0.0,0.0,0.0,0.0,0.0,0.0,0.0,0.0,0
22.0,-6.0,-9.0,3.0,-1.0,-5.0,-19.0,1.0,0.0,0.0,0.0,0.0,0.0,0.0,0.0,0.0,0
17.0,3.0,-5.0,0.0,-4.0,-2.0,-15.0,3.0,0.0,0.0,0.0,0.0,0.0,0.0,0.0,0.0,0
22.0,8.0,-24.0,-12.0,-12.0,-9.0,-13.0,4.0,0.0,0.0,0.0,0.0,0.0,0.0,0.0,0.0,0
30.0,2.0,-34.0,-20.0,-12.0,-13.0,-21.0,6.0,0.0,0.0,0.0,0.0,0.0,0.0,0.0,0.0,0
17.0,-10.0,-21.0,-18.0,-9.0,-15.0,-22.0,5.0,0.0,0.0,0.0,0.0,0.0,0.0,0.0,0.0,0
-6.0,-9.0,-27.0,-16.0,-7.0,-14.0,-11.0,-2.0,0.0,0.0,0.0,0.0,0.0,0.0,0.0,0.0,0
-23.0,-26.0,-24.0,-18.0,-9.0,-16.0,-2.0,-2.0,0.0,0.0,0.0,0.0,0.0,0.0,0.0,0.0,0
-40.0,-33.0,-5.0,5.0,-4.0,1.0,8.0,-2.0,0.0,0.0,0.0,0.0,0.0,0.0,0.0,0.0,0
-24.0,-13.0,22.0,21.0,6.0,4.0,10.0,-10.0,0.0,0.0,0.0,0.0,0.0,0.0,0.0,0.0,0
-10.0,2.0,32.0,16.0,6.0,3.0,17.0,-4.0,0.0,0.0,0.0,0.0,0.0,0.0,0.0,0.0,0
-8.0,18.0,41.0,2.0,3.0,13.0,25.0,-2.0,0.0,0.0,0.0,0.0,0.0,0.0,0.0,0.0,0
-8.0,38.0,36.0,-3.0,6.0,16.0,24.0,-5.0,0.0,0.0,0.0,0.0,0.0,0.0,0.0,0.0,0
-7.0,22.0,6.0,-7.0,-5.0,6.0,5.0,-13.0,0.0,0.0,0.0,0.0,0.0,0.0,0.0,0.0,0
-12.0,9.0,0.0,-8.0,-7.0,-5.0,-10.0,-20.0,0.0,0.0,0.0,0.0,0.0,0.0,0.0,0.0,0
-4.0,13.0,9.0,1.0,-1.0,0.0,-3.0,-17.0,0.0,0.0,0.0,0.0,0.0,0.0,0.0,0.0,0
-3.0,-19.0,-13.0,-6.0,3.0,-1.0,3.0,-2.0,0.0,0.0,0.0,0.0,0.0,0.0,0.0,0.0,0
-16.0,-43.0,-27.0,-4.0,-6.0,-6.0,-5.0,5.0,0.0,0.0,0.0,0.0,0.0,0.0,0.0,0.0,0
-6.0,-34.0,-21.0,1.0,-3.0,-4.0,-9.0,-1.0,0.0,0.0,0.0,0.0,0.0,0.0,0.0,0.0,0
-3.0,-1.0,-10.0,4.0,6.0,-4.0,-2.0,0.0,0.0,0.0,0.0,0.0,0.0,0.0,0.0,0.0,0
0.0,17.0,-4.0,5.0,11.0,-4.0,-3.0,6.0,0.0,0.0,0.0,0.0,0.0,0.0,0.0,0.0,0
10.0,15.0,-5.0,5.0,1.0,-5.0,-12.0,10.0,0.0,0.0,0.0,0.0,0.0,0.0,0.0,0.0,0
20.0,14.0,7.0,-2.0,-5.0,-2.0,-13.0,5.0,0.0,0.0,0.0,0.0,0.0,0.0,0.0,0.0,0
26.0,11.0,5.0,-9.0,-10.0,-7.0,-18.0,2.0,0.0,0.0,0.0,0.0,0.0,0.0,0.0,0.0,0
35.0,-5.0,-11.0,-19.0,-23.0,-18.0,-24.0,0.0,0.0,0.0,0.0,0.0,0.0,0.0,0.0,0.0,0
31.0,-18.0,-6.0,-13.0,-20.0,-15.0,-16.0,-6.0,0.0,0.0,0.0,0.0,0.0,0.0,0.0,0.0,0
25.0,-14.0,-18.0,-12.0,-10.0,-6.0,-13.0,-4.0,0.0,0.0,0.0,0.0,0.0,0.0,0.0,0.0,0
4.0,-10.0,-32.0,-7.0,-7.0,-7.0,-19.0,0.0,0.0,0.0,0.0,0.0,0.0,0.0,0.0,0.0,0
-20.0,-6.0,-28.0,-1.0,-11.0,4.0,0.0,-5.0,0.0,0.0,0.0,0.0,0.0,0.0,0.0,0.0,0
-25.0,8.0,-15.0,0.0,-3.0,-2.0,14.0,-6.0,0.0,0.0,0.0,0.0,0.0,0.0,0.0,0.0,0
-27.0,-2.0,-7.0,-7.0,9.0,-4.0,17.0,-7.0,0.0,0.0,0.0,0.0,0.0,0.0,0.0,0.0,0
-64.0,-35.0,10.0,-8.0,10.0,7.0,26.0,-13.0,0.0,0.0,0.0,0.0,0.0,0.0,0.0,0.0,0
-60.0,-46.0,27.0,10.0,9.0,9.0,20.0,-9.0,0.0,0.0,0.0,0.0,0.0,0.0,0.0,0.0,0
-42.0,-40.0,30.0,17.0,10.0,11.0,8.0,-3.0,0.0,0.0,0.0,0.0,0.0,0.0,0.0,0.0,0
-20.0,-5.0,26.0,6.0,6.0,10.0,7.0,4.0,0.0,0.0,0.0,0.0,0.0,0.0,0.0,0.0,0
15.0,55.0,31.0,5.0,5.0,13.0,11.0,-2.0,0.0,0.0,0.0,0.0,0.0,0.0,0.0,0.0,0
14.0,65.0,26.0,-6.0,0.0,1.0,-1.0,-8.0,0.0,0.0,0.0,0.0,0.0,0.0,0.0,0.0,0
27.0,56.0,-7.0,-14.0,-14.0,-9.0,-16.0,-11.0,0.0,0.0,0.0,0.0,0.0,0.0,0.0,0.0,0
27.0,32.0,-23.0,-18.0,-19.0,-14.0,-16.0,-10.0,0.0,0.0,0.0,0.0,0.0,0.0,0.0,0.0,0
21.0,6.0,-25.0,-4.0,-12.0,-8.0,-7.0,-4.0,0.0,0.0,0.0,0.0,0.0,0.0,0.0,0.0,0
17.0,-30.0,-22.0,-5.0,-3.0,-5.0,-8.0,2.0,0.0,0.0,0.0,0.0,0.0,0.0,0.0,0.0,0
4.0,-56.0,-30.0,5.0,2.0,-9.0,-17.0,9.0,0.0,0.0,0.0,0.0,0.0,0.0,0.0,0.0,0
0.0,-44.0,-9.0,13.0,4.0,-4.0,-15.0,4.0,0.0,0.0,0.0,0.0,0.0,0.0,0.0,0.0,0
11.0,-4.0,3.0,18.0,5.0,0.0,-12.0,4.0,0.0,0.0,0.0,0.0,0.0,0.0,0.0,0.0,0
12.0,-7.0,-9.0,8.0,-3.0,-4.0,-22.0,0.0,0.0,0.0,0.0,0.0,0.0,0.0,0.0,0.0,0
8.0,-20.0,-18.0,-5.0,-4.0,-10.0,-19.0,-4.0,0.0,0.0,0.0,0.0,0.0,0.0,0.0,0.0,0
10.0,-27.0,-35.0,-23.0,-3.0,-11.0,-10.0,2.0,0.0,0.0,0.0,0.0,0.0,0.0,0.0,0.0,0
17.0,-15.0,-24.0,-24.0,-6.0,-7.0,-10.0,2.0,0.0,0.0,0.0,0.0,0.0,0.0,0.0,0.0,0
-22.0,2.0,1.0,-12.0,-3.0,-3.0,10.0,4.0,0.0,0.0,0.0,0.0,0.0,0.0,0.0,0.0,0
-66.0,2.0,4.0,-4.0,-5.0,-1.0,21.0,-4.0,0.0,0.0,0.0,0.0,0.0,0.0,0.0,0.0,0
-51.0,6.0,12.0,3.0,-6.0,0.0,15.0,-11.0,0.0,0.0,0.0,0.0,0.0,0.0,0.0,0.0,0
-15.0,11.0,32.0,6.0,-2.0,3.0,20.0,-11.0,0.0,0.0,0.0,0.0,0.0,0.0,0.0,0.0,0
17.0,32.0,45.0,6.0,-3.0,7.0,20.0,-3.0,0.0,0.0,0.0,0.0,0.0,0.0,0.0,0.0,0
27.0,54.0,43.0,7.0,1.0,4.0,4.0,-8.0,0.0,0.0,0.0,0.0,0.0,0.0,0.0,0.0,0
8.0,34.0,31.0,8.0,3.0,1.0,0.0,-9.0,0.0,0.0,0.0,0.0,0.0,0.0,0.0,0.0,0
-4.0,2.0,3.0,4.0,-2.0,4.0,3.0,-8.0,0.0,0.0,0.0,0.0,0.0,0.0,0.0,0.0,0
-15.0,-10.0,-15.0,-17.0,-6.0,5.0,-3.0,-9.0,0.0,0.0,0.0,0.0,0.0,0.0,0.0,0.0,0
-32.0,-46.0,-44.0,-17.0,1.0,5.0,-5.0,-3.0,0.0,0.0,0.0,0.0,0.0,0.0,0.0,0.0,0
-28.0,-42.0,-29.0,-4.0,3.0,-3.0,-3.0,6.0,0.0,0.0,0.0,0.0,0.0,0.0,0.0,0.0,0
3.0,-3.0,5.0,3.0,4.0,-9.0,-9.0,3.0,0.0,0.0,0.0,0.0,0.0,0.0,0.0,0.0,0
17.0,-16.0,-22.0,-3.0,-6.0,-6.0,-7.0,1.0,0.0,0.0,0.0,0.0,0.0,0.0,0.0,0.0,0
32.0,-24.0,-33.0,-4.0,-9.0,-7.0,-7.0,4.0,0.0,0.0,0.0,0.0,0.0,0.0,0.0,0.0,0
19.0,3.0,-21.0,1.0,-2.0,-3.0,-17.0,8.0,0.0,0.0,0.0,0.0,0.0,0.0,0.0,0.0,0
12.0,0.0,-18.0,-6.0,-2.0,1.0,-19.0,3.0,0.0,0.0,0.0,0.0,0.0,0.0,0.0,0.0,0
-2.0,-16.0,-22.0,-13.0,-18.0,-14.0,-26.0,2.0,0.0,0.0,0.0,0.0,0.0,0.0,0.0,0.0,0
-14.0,-10.0,5.0,-3.0,-15.0,-24.0,-18.0,-3.0,0.0,0.0,0.0,0.0,0.0,0.0,0.0,0.0,0
-6.0,-1.0,27.0,13.0,-5.0,-19.0,-9.0,-1.0,0.0,0.0,0.0,0.0,0.0,0.0,0.0,0.0,0
8.0,6.0,13.0,9.0,0.0,-8.0,-5.0,1.0,0.0,0.0,0.0,0.0,0.0,0.0,0.0,0.0,0
1.0,10.0,6.0,-3.0,-2.0,6.0,1.0,0.0,0.0,0.0,0.0,0.0,0.0,0.0,0.0,0.0,0
-3.0,9.0,-3.0,-17.0,1.0,8.0,4.0,-7.0,0.0,0.0,0.0,0.0,0.0,0.0,0.0,0.0,0
-8.0,-11.0,-6.0,-16.0,-1.0,3.0,15.0,-11.0,0.0,0.0,0.0,0.0,0.0,0.0,0.0,0.0,0
-22.0,-17.0,4.0,3.0,6.0,9.0,23.0,-7.0,0.0,0.0,0.0,0.0,0.0,0.0,0.0,0.0,0
-12.0,10.0,12.0,15.0,6.0,9.0,23.0,-8.0,0.0,0.0,0.0,0.0,0.0,0.0,0.0,0.0,0
-3.0,32.0,22.0,20.0,9.0,5.0,17.0,-5.0,0.0,0.0,0.0,0.0,0.0,0.0,0.0,0.0,0
-14.0,23.0,23.0,14.0,1.0,9.0,6.0,-6.0,0.0,0.0,0.0,0.0,0.0,0.0,0.0,0.0,0
-34.0,4.0,15.0,4.0,-2.0,2.0,1.0,-14.0,0.0,0.0,0.0,0.0,0.0,0.0,0.0,0.0,0
-29.0,-10.0,-1.0,-13.0,-4.0,-3.0,0.0,-2.0,0.0,0.0,0.0,0.0,0.0,0.0,0.0,0.0,0
-4.0,-15.0,-9.0,-10.0,-4.0,-3.0,-8.0,-3.0,0.0,0.0,0.0,0.0,0.0,0.0,0.0,0.0,0
11.0,-6.0,-15.0,-19.0,-12.0,-3.0,-9.0,-4.0,0.0,0.0,0.0,0.0,0.0,0.0,0.0,0.0,0
20.0,-1.0,-21.0,-21.0,-7.0,-5.0,-11.0,-2.0,0.0,0.0,0.0,0.0,0.0,0.0,0.0,0.0,0
15.0,6.0,-26.0,-19.0,-9.0,-4.0,-12.0,0.0,0.0,0.0,0.0,0.0,0.0,0.0,0.0,0.0,0
23.0,7.0,-26.0,-12.0,-7.0,-16.0,-19.0,6.0,0.0,0.0,0.0,0.0,0.0,0.0,0.0,0.0,0
20.0,-8.0,-12.0,5.0,-4.0,-14.0,-16.0,7.0,0.0,0.0,0.0,0.0,0.0,0.0,0.0,0.0,0
9.0,-26.0,-7.0,12.0,-4.0,-6.0,-10.0,6.0,0.0,0.0,0.0,0.0,0.0,0.0,0.0,0.0,0
-4.0,-50.0,-6.0,5.0,-8.0,-8.0,-17.0,7.0,0.0,0.0,0.0,0.0,0.0,0.0,0.0,0.0,0
-16.0,-46.0,3.0,8.0,-4.0,-4.0,-13.0,4.0,0.0,0.0,0.0,0.0,0.0,0.0,0.0,0.0,0
-9.0,-23.0,4.0,2.0,-8.0,-7.0,-6.0,-2.0,0.0,0.0,0.0,0.0,0.0,0.0,0.0,0.0,0
-2.0,13.0,-7.0,4.0,-9.0,-15.0,-2.0,2.0,0.0,0.0,0.0,0.0,0.0,0.0,0.0,0.0,0
7.0,49.0,-1.0,4.0,-1.0,-2.0,6.0,1.0,0.0,0.0,0.0,0.0,0.0,0.0,0.0,0.0,0
24.0,52.0,0.0,4.0,6.0,3.0,10.0,-9.0,0.0,0.0,0.0,0.0,0.0,0.0,0.0,0.0,0
11.0,29.0,11.0,6.0,14.0,10.0,9.0,-9.0,0.0,0.0,0.0,0.0,0.0,0.0,0.0,0.0,0
-26.0,-7.0,11.0,-3.0,8.0,14.0,18.0,-8.0,0.0,0.0,0.0,0.0,0.0,0.0,0.0,0.0,0
-43.0,-41.0,10.0,-6.0,-1.0,4.0,20.0,-14.0,0.0,0.0,0.0,0.0,0.0,0.0,0.0,0.0,0
-28.0,-42.0,-4.0,-7.0,-7.0,2.0,8.0,-12.0,0.0,0.0,0.0,0.0,0.0,0.0,0.0,0.0,0
-37.0,-31.0,-9.0,-5.0,-12.0,0.0,6.0,-9.0,0.0,0.0,0.0,0.0,0.0,0.0,0.0,0.0,0
-37.0,4.0,-2.0,-15.0,-8.0,3.0,6.0,-5.0,0.0,0.0,0.0,0.0,0.0,0.0,0.0,0.0,0
-20.0,43.0,13.0,-8.0,3.0,-3.0,-1.0,-8.0,0.0,0.0,0.0,0.0,0.0,0.0,0.0,0.0,0
1.0,54.0,15.0,6.0,0.0,-5.0,-4.0,-2.0,0.0,0.0,0.0,0.0,0.0,0.0,0.0,0.0,0
22.0,32.0,14.0,3.0,-1.0,-2.0,-8.0,0.0,0.0,0.0,0.0,0.0,0.0,0.0,0.0,0.0,0
28.0,6.0,13.0,0.0,-2.0,0.0,-6.0,3.0,0.0,0.0,0.0,0.0,0.0,0.0,0.0,0.0,0
43.0,-10.0,-6.0,-11.0,-2.0,-2.0,-14.0,2.0,0.0,0.0,0.0,0.0,0.0,0.0,0.0,0.0,0
47.0,-1.0,-24.0,-13.0,-14.0,-7.0,-24.0,1.0,0.0,0.0,0.0,0.0,0.0,0.0,0.0,0.0,0
21.0,-16.0,-38.0,-10.0,-14.0,-13.0,-18.0,0.0,0.0,0.0,0.0,0.0,0.0,0.0,0.0,0.0,0
-13.0,-59.0,-40.0,-3.0,-5.0,-16.0,-10.0,0.0,0.0,0.0,0.0,0.0,0.0,0.0,0.0,0.0,0
-19.0,-50.0,-34.0,2.0,-2.0,-12.0,-19.0,7.0,0.0,0.0,0.0,0.0,0.0,0.0,0.0,0.0,0
-14.0,-24.0,-16.0,3.0,0.0,-2.0,-16.0,8.0,0.0,0.0,0.0,0.0,0.0,0.0,0.0,0.0,0
3.0,-4.0,-3.0,10.0,5.0,-5.0,-9.0,7.0,0.0,0.0,0.0,0.0,0.0,0.0,0.0,0.0,0
4.0,-4.0,-1.0,10.0,3.0,-3.0,-6.0,2.0,0.0,0.0,0.0,0.0,0.0,0.0,0.0,0.0,0
-15.0,0.0,13.0,3.0,5.0,4.0,2.0,-2.0,0.0,0.0,0.0,0.0,0.0,0.0,0.0,0.0,0
-15.0,6.0,27.0,5.0,-2.0,6.0,12.0,-7.0,0.0,0.0,0.0,0.0,0.0,0.0,0.0,0.0,0
-8.0,12.0,28.0,-4.0,-8.0,2.0,17.0,-14.0,0.0,0.0,0.0,0.0,0.0,0.0,0.0,0.0,0
-26.0,17.0,20.0,-15.0,-7.0,2.0,26.0,-9.0,0.0,0.0,0.0,0.0,0.0,0.0,0.0,0.0,0
-24.0,32.0,4.0,-17.0,-7.0,3.0,15.0,-10.0,0.0,0.0,0.0,0.0,0.0,0.0,0.0,0.0,0
-7.0,36.0,0.0,-12.0,-5.0,2.0,0.0,-9.0,0.0,0.0,0.0,0.0,0.0,0.0,0.0,0.0,0
3.0,14.0,2.0,-2.0,-2.0,-4.0,-1.0,-6.0,0.0,0.0,0.0,0.0,0.0,0.0,0.0,0.0,0
-3.0,-36.0,-9.0,1.0,3.0,-1.0,4.0,-6.0,0.0,0.0,0.0,0.0,0.0,0.0,0.0,0.0,0
-4.0,-49.0,-12.0,8.0,7.0,5.0,-1.0,-4.0,0.0,0.0,0.0,0.0,0.0,0.0,0.0,0.0,0
18.0,-1.0,16.0,11.0,9.0,1.0,-3.0,-1.0,0.0,0.0,0.0,0.0,0.0,0.0,0.0,0.0,0
19.0,30.0,12.0,4.0,-1.0,0.0,-6.0,-1.0,0.0,0.0,0.0,0.0,0.0,0.0,0.0,0.0,0
-5.0,12.0,-10.0,-6.0,-7.0,1.0,-4.0,5.0,0.0,0.0,0.0,0.0,0.0,0.0,0.0,0.0,0
-38.0,-6.0,-18.0,-13.0,-4.0,3.0,-7.0,11.0,0.0,0.0,0.0,0.0,0.0,0.0,0.0,0.0,0
-31.0,-26.0,-23.0,-13.0,-6.0,-2.0,-16.0,11.0,0.0,0.0,0.0,0.0,0.0,0.0,0.0,0.0,0
-1.0,-21.0,-21.0,-7.0,-11.0,-7.0,-18.0,0.0,0.0,0.0,0.0,0.0,0.0,0.0,0.0,0.0,0
26.0,-21.0,-26.0,-16.0,-16.0,-19.0,-15.0,-8.0,0.0,0.0,0.0,0.0,0.0,0.0,0.0,0.0,0
69.0,-1.0,-14.0,6.0,-9.0,-22.0,-21.0,6.0,0.0,0.0,0.0,0.0,0.0,0.0,0.0,0.0,0
47.0,10.0,0.0,14.0,5.0,-21.0,-18.0,4.0,0.0,0.0,0.0,0.0,0.0,0.0,0.0,0.0,0
1.0,-9.0,-5.0,9.0,8.0,-8.0,-3.0,1.0,0.0,0.0,0.0,0.0,0.0,0.0,0.0,0.0,0
-7.0,-27.0,-19.0,-2.0,-3.0,-3.0,0.0,1.0,0.0,0.0,0.0,0.0,0.0,0.0,0.0,0.0,0
-11.0,-28.0,-9.0,-5.0,-1.0,12.0,4.0,-5.0,0.0,0.0,0.0,0.0,0.0,0.0,0.0,0.0,0
-33.0,3.0,15.0,0.0,8.0,11.0,10.0,-8.0,0.0,0.0,0.0,0.0,0.0,0.0,0.0,0.0,0
-26.0,33.0,28.0,-6.0,1.0,5.0,15.0,-11.0,0.0,0.0,0.0,0.0,0.0,0.0,0.0,0.0,0
-15.0,22.0,22.0,-18.0,-11.0,5.0,12.0,-13.0,0.0,0.0,0.0,0.0,0.0,0.0,0.0,0.0,0
-20.0,12.0,12.0,-16.0,-19.0,4.0,20.0,-12.0,0.0,0.0,0.0,0.0,0.0,0.0,0.0,0.0,0
-10.0,6.0,7.0,-8.0,-14.0,0.0,9.0,-5.0,0.0,0.0,0.0,0.0,0.0,0.0,0.0,0.0,0
-6.0,15.0,3.0,-8.0,-8.0,-5.0,3.0,-6.0,0.0,0.0,0.0,0.0,0.0,0.0,0.0,0.0,0
2.0,26.0,6.0,1.0,4.0,-4.0,2.0,-7.0,0.0,0.0,0.0,0.0,0.0,0.0,0.0,0.0,0
6.0,18.0,8.0,11.0,7.0,3.0,-1.0,-2.0,0.0,0.0,0.0,0.0,0.0,0.0,0.0,0.0,0
4.0,-3.0,1.0,11.0,4.0,0.0,-7.0,-12.0,0.0,0.0,0.0,0.0,0.0,0.0,0.0,0.0,0
-1.0,-17.0,-11.0,5.0,4.0,-2.0,-13.0,-11.0,0.0,0.0,0.0,0.0,0.0,0.0,0.0,0.0,0
-38.0,-53.0,-20.0,0.0,1.0,-2.0,-3.0,-4.0,0.0,0.0,0.0,0.0,0.0,0.0,0.0,0.0,0
-36.0,-48.0,-23.0,-6.0,2.0,-3.0,-6.0,8.0,0.0,0.0,0.0,0.0,0.0,0.0,0.0,0.0,0
0.0,-30.0,-27.0,-12.0,3.0,-5.0,-15.0,22.0,0.0,0.0,0.0,0.0,0.0,0.0,0.0,0.0,0
-6.0,-34.0,-25.0,-14.0,-3.0,-5.0,-5.0,11.0,0.0,0.0,0.0,0.0,0.0,0.0,0.0,0.0,0
5.0,-12.0,-23.0,-15.0,-3.0,-4.0,-11.0,1.0,0.0,0.0,0.0,0.0,0.0,0.0,0.0,0.0,0
48.0,26.0,-25.0,-16.0,-7.0,-10.0,-20.0,-1.0,0.0,0.0,0.0,0.0,0.0,0.0,0.0,0.0,0
62.0,32.0,-16.0,-3.0,-9.0,-17.0,-26.0,0.0,0.0,0.0,0.0,0.0,0.0,0.0,0.0,0.0,0
39.0,13.0,2.0,3.0,-10.0,-16.0,-21.0,-1.0,0.0,0.0,0.0,0.0,0.0,0.0,0.0,0.0,0
5.0,-20.0,13.0,5.0,-10.0,-10.0,-10.0,-5.0,0.0,0.0,0.0,0.0,0.0,0.0,0.0,0.0,0
-22.0,-5.0,33.0,14.0,-8.0,-1.0,8.0,-9.0,0.0,0.0,0.0,0.0,0.0,0.0,0.0,0.0,0
-19.0,8.0,36.0,21.0,1.0,7.0,13.0,-9.0,0.0,0.0,0.0,0.0,0.0,0.0,0.0,0.0,0
-18.0,5.0,19.0,13.0,7.0,9.0,10.0,-12.0,0.0,0.0,0.0,0.0,0.0,0.0,0.0,0.0,0
-19.0,30.0,18.0,5.0,11.0,5.0,16.0,-10.0,0.0,0.0,0.0,0.0,0.0,0.0,0.0,0.0,0
-10.0,33.0,10.0,-4.0,9.0,13.0,24.0,-6.0,0.0,0.0,0.0,0.0,0.0,0.0,0.0,0.0,0
-24.0,6.0,-2.0,-8.0,7.0,9.0,15.0,3.0,0.0,0.0,0.0,0.0,0.0,0.0,0.0,0.0,0
-32.0,-15.0,-7.0,-12.0,0.0,-3.0,-4.0,-4.0,0.0,0.0,0.0,0.0,0.0,0.0,0.0,0.0,0
-34.0,-19.0,-20.0,-21.0,-8.0,1.0,3.0,-3.0,0.0,0.0,0.0,0.0,0.0,0.0,0.0,0.0,0
-17.0,3.0,-23.0,-26.0,-13.0,7.0,2.0,2.0,0.0,0.0,0.0,0.0,0.0,0.0,0.0,0.0,0
11.0,8.0,-22.0,-21.0,-11.0,-2.0,-5.0,0.0,0.0,0.0,0.0,0.0,0.0,0.0,0.0,0.0,0
19.0,-4.0,-19.0,-7.0,-7.0,-8.0,-4.0,-6.0,0.0,0.0,0.0,0.0,0.0,0.0,0.0,0.0,0
26.0,-20.0,-19.0,0.0,-7.0,-11.0,-17.0,-6.0,0.0,0.0,0.0,0.0,0.0,0.0,0.0,0.0,0
-4.0,-45.0,1.0,12.0,0.0,-11.0,-19.0,-4.0,0.0,0.0,0.0,0.0,0.0,0.0,0.0,0.0,0
-19.0,-52.0,2.0,17.0,3.0,-8.0,-18.0,7.0,0.0,0.0,0.0,0.0,0.0,0.0,0.0,0.0,0
-10.0,-18.0,9.0,12.0,0.0,-6.0,-15.0,1.0,0.0,0.0,0.0,0.0,0.0,0.0,0.0,0.0,0
31.0,15.0,11.0,7.0,-1.0,-3.0,-14.0,4.0,0.0,0.0,0.0,0.0,0.0,0.0,0.0,0.0,0
40.0,29.0,-1.0,-2.0,3.0,-2.0,-13.0,9.0,0.0,0.0,0.0,0.0,0.0,0.0,0.0,0.0,0
35.0,51.0,-2.0,-7.0,2.0,-1.0,-11.0,7.0,0.0,0.0,0.0,0.0,0.0,0.0,0.0,0.0,0
27.0,55.0,-13.0,-15.0,-8.0,-7.0,-9.0,11.0,0.0,0.0,0.0,0.0,0.0,0.0,0.0,0.0,0
9.0,7.0,-14.0,-13.0,-10.0,-11.0,-3.0,5.0,0.0,0.0,0.0,0.0,0.0,0.0,0.0,0.0,0
-12.0,-36.0,1.0,-4.0,-14.0,-5.0,8.0,-2.0,0.0,0.0,0.0,0.0,0.0,0.0,0.0,0.0,0
-27.0,-47.0,-2.0,-14.0,-12.0,-6.0,11.0,-12.0,0.0,0.0,0.0,0.0,0.0,0.0,0.0,0.0,0
-42.0,-36.0,-10.0,-10.0,-6.0,-4.0,3.0,-18.0,0.0,0.0,0.0,0.0,0.0,0.0,0.0,0.0,0
-56.0,-43.0,-10.0,-10.0,-3.0,-4.0,14.0,-18.0,0.0,0.0,0.0,0.0,0.0,0.0,0.0,0.0,0
-60.0,-39.0,-10.0,-5.0,0.0,7.0,14.0,-15.0,0.0,0.0,0.0,0.0,0.0,0.0,0.0,0.0,0
-39.0,9.0,12.0,27.0,15.0,14.0,8.0,-3.0,0.0,0.0,0.0,0.0,0.0,0.0,0.0,0.0,0
16.0,50.0,42.0,39.0,16.0,6.0,4.0,-6.0,0.0,0.0,0.0,0.0,0.0,0.0,0.0,0.0,0
35.0,45.0,27.0,10.0,2.0,5.0,7.0,-6.0,0.0,0.0,0.0,0.0,0.0,0.0,0.0,0.0,0
36.0,26.0,11.0,-9.0,-2.0,3.0,2.0,1.0,0.0,0.0,0.0,0.0,0.0,0.0,0.0,0.0,0
20.0,8.0,7.0,-7.0,-1.0,10.0,4.0,5.0,0.0,0.0,0.0,0.0,0.0,0.0,0.0,0.0,0
-2.0,32.0,14.0,1.0,2.0,7.0,2.0,-4.0,0.0,0.0,0.0,0.0,0.0,0.0,0.0,0.0,0
-20.0,28.0,-4.0,-12.0,-10.0,-8.0,-11.0,-9.0,0.0,0.0,0.0,0.0,0.0,0.0,0.0,0.0,0
-15.0,9.0,-27.0,-19.0,-7.0,-16.0,-18.0,1.0,0.0,0.0,0.0,0.0,0.0,0.0,0.0,0.0,0
10.0,-24.0,-51.0,-27.0,-15.0,-17.0,-26.0,6.0,0.0,0.0,0.0,0.0,0.0,0.0,0.0,0.0,0
8.0,-49.0,-49.0,-24.0,-16.0,-12.0,-19.0,5.0,0.0,0.0,0.0,0.0,0.0,0.0,0.0,0.0,0
-6.0,-58.0,-31.0,-10.0,-10.0,-14.0,-13.0,1.0,0.0,0.0,0.0,0.0,0.0,0.0,0.0,0.0,0
11.0,-58.0,-24.0,-3.0,-11.0,-17.0,-26.0,3.0,0.0,0.0,0.0,0.0,0.0,0.0,0.0,0.0,0
27.0,-43.0,-2.0,20.0,1.0,-14.0,-16.0,8.0,0.0,0.0,0.0,0.0,0.0,0.0,0.0,0.0,0
14.0,-25.0,12.0,28.0,10.0,-2.0,-3.0,9.0,0.0,0.0,0.0,0.0,0.0,0.0,0.0,0.0,0
3.0,-1.0,23.0,23.0,2.0,-2.0,0.0,2.0,0.0,0.0,0.0,0.0,0.0,0.0,0.0,0.0,0
-17.0,33.0,15.0,3.0,2.0,3.0,8.0,-9.0,0.0,0.0,0.0,0.0,0.0,0.0,0.0,0.0,0
-21.0,66.0,15.0,-6.0,4.0,8.0,11.0,-6.0,0.0,0.0,0.0,0.0,0.0,0.0,0.0,0.0,0
5.0,75.0,15.0,-4.0,5.0,4.0,12.0,-12.0,0.0,0.0,0.0,0.0,0.0,0.0,0.0,0.0,0
1.0,48.0,15.0,-2.0,-4.0,0.0,18.0,-13.0,0.0,0.0,0.0,0.0,0.0,0.0,0.0,0.0,0
-21.0,4.0,5.0,-11.0,3.0,1.0,15.0,-18.0,0.0,0.0,0.0,0.0,0.0,0.0,0.0,0.0,0
-17.0,-36.0,-5.0,-11.0,5.0,2.0,5.0,-12.0,0.0,0.0,0.0,0.0,0.0,0.0,0.0,0.0,0
-21.0,-62.0,-9.0,-16.0,-5.0,5.0,3.0,-1.0,0.0,0.0,0.0,0.0,0.0,0.0,0.0,0.0,0
-34.0,-61.0,-6.0,-18.0,-7.0,5.0,5.0,0.0,0.0,0.0,0.0,0.0,0.0,0.0,0.0,0.0,0
-11.0,-19.0,1.0,-3.0,-13.0,-2.0,1.0,0.0,0.0,0.0,0.0,0.0,0.0,0.0,0.0,0.0,0
5.0,4.0,-5.0,0.0,-6.0,-3.0,-5.0,-2.0,0.0,0.0,0.0,0.0,0.0,0.0,0.0,0.0,0
-9.0,16.0,-9.0,2.0,1.0,1.0,-6.0,-3.0,0.0,0.0,0.0,0.0,0.0,0.0,0.0,0.0,0
-7.0,18.0,5.0,0.0,0.0,2.0,0.0,-1.0,0.0,0.0,0.0,0.0,0.0,0.0,0.0,0.0,0
-15.0,14.0,4.0,3.0,-2.0,-8.0,-17.0,-5.0,0.0,0.0,0.0,0.0,0.0,0.0,0.0,0.0,0
-1.0,18.0,-2.0,8.0,-1.0,-14.0,-23.0,9.0,0.0,0.0,0.0,0.0,0.0,0.0,0.0,0.0,0
4.0,14.0,-9.0,-2.0,5.0,-13.0,-17.0,12.0,0.0,0.0,0.0,0.0,0.0,0.0,0.0,0.0,0
31.0,-4.0,-24.0,-12.0,2.0,-14.0,-10.0,3.0,0.0,0.0,0.0,0.0,0.0,0.0,0.0,0.0,0
71.0,-17.0,-28.0,-11.0,-8.0,-5.0,-21.0,-4.0,0.0,0.0,0.0,0.0,0.0,0.0,0.0,0.0,0
61.0,-32.0,-15.0,0.0,-10.0,-8.0,-17.0,10.0,0.0,0.0,0.0,0.0,0.0,0.0,0.0,0.0,0
24.0,-31.0,-16.0,4.0,-7.0,-7.0,-9.0,12.0,0.0,0.0,0.0,0.0,0.0,0.0,0.0,0.0,0
-8.0,-32.0,-14.0,-6.0,-4.0,-3.0,-7.0,-3.0,0.0,0.0,0.0,0.0,0.0,0.0,0.0,0.0,0
-23.0,-21.0,-2.0,-8.0,-10.0,0.0,1.0,-11.0,0.0,0.0,0.0,0.0,0.0,0.0,0.0,0.0,0
-29.0,-2.0,4.0,-4.0,-1.0,2.0,10.0,-13.0,0.0,0.0,0.0,0.0,0.0,0.0,0.0,0.0,0
-48.0,27.0,27.0,4.0,3.0,7.0,13.0,-16.0,0.0,0.0,0.0,0.0,0.0,0.0,0.0,0.0,0
-53.0,53.0,43.0,10.0,4.0,9.0,20.0,-12.0,0.0,0.0,0.0,0.0,0.0,0.0,0.0,0.0,0
-36.0,42.0,31.0,6.0,8.0,3.0,20.0,-5.0,0.0,0.0,0.0,0.0,0.0,0.0,0.0,0.0,0
-25.0,5.0,10.0,-3.0,5.0,-4.0,12.0,-1.0,0.0,0.0,0.0,0.0,0.0,0.0,0.0,0.0,0
-17.0,-21.0,-3.0,-7.0,-2.0,4.0,3.0,-8.0,0.0,0.0,0.0,0.0,0.0,0.0,0.0,0.0,0
-9.0,-35.0,-12.0,-15.0,-11.0,1.0,-1.0,-11.0,0.0,0.0,0.0,0.0,0.0,0.0,0.0,0.0,0
10.0,-37.0,-21.0,-13.0,-11.0,-3.0,-2.0,-8.0,0.0,0.0,0.0,0.0,0.0,0.0,0.0,0.0,0
14.0,-4.0,-15.0,-7.0,-4.0,3.0,-8.0,4.0,0.0,0.0,0.0,0.0,0.0,0.0,0.0,0.0,0
22.0,22.0,-3.0,-2.0,2.0,3.0,-3.0,2.0,0.0,0.0,0.0,0.0,0.0,0.0,0.0,0.0,0
12.0,13.0,3.0,-3.0,-1.0,-1.0,-1.0,-1.0,0.0,0.0,0.0,0.0,0.0,0.0,0.0,0.0,0
0.0,-7.0,-2.0,2.0,-8.0,-7.0,-7.0,3.0,0.0,0.0,0.0,0.0,0.0,0.0,0.0,0.0,0
-2.0,-3.0,-5.0,-3.0,-10.0,-10.0,-16.0,9.0,0.0,0.0,0.0,0.0,0.0,0.0,0.0,0.0,0
7.0,-11.0,-16.0,-9.0,-8.0,-11.0,-19.0,5.0,0.0,0.0,0.0,0.0,0.0,0.0,0.0,0.0,0
20.0,-2.0,-10.0,-10.0,1.0,-14.0,-19.0,-3.0,0.0,0.0,0.0,0.0,0.0,0.0,0.0,0.0,0
36.0,-2.0,-6.0,6.0,0.0,-14.0,-24.0,4.0,0.0,0.0,0.0,0.0,0.0,0.0,0.0,0.0,0
33.0,0.0,-8.0,13.0,6.0,-7.0,-16.0,8.0,0.0,0.0,0.0,0.0,0.0,0.0,0.0,0.0,0
-4.0,-11.0,-8.0,13.0,6.0,0.0,-11.0,3.0,0.0,0.0,0.0,0.0,0.0,0.0,0.0,0.0,0
-19.0,-9.0,-18.0,3.0,1.0,-4.0,-8.0,2.0,0.0,0.0,0.0,0.0,0.0,0.0,0.0,0.0,0
-14.0,-5.0,-10.0,-2.0,-9.0,-7.0,4.0,-9.0,0.0,0.0,0.0,0.0,0.0,0.0,0.0,0.0,0
8.0,-1.0,-3.0,-8.0,-13.0,-4.0,9.0,-10.0,0.0,0.0,0.0,0.0,0.0,0.0,0.0,0.0,0
-22.0,-9.0,1.0,-7.0,-4.0,10.0,18.0,-9.0,0.0,0.0,0.0,0.0,0.0,0.0,0.0,0.0,0
-57.0,-5.0,13.0,-2.0,1.0,9.0,20.0,-14.0,0.0,0.0,0.0,0.0,0.0,0.0,0.0,0.0,0
-43.0,14.0,35.0,3.0,2.0,-1.0,16.0,-9.0,0.0,0.0,0.0,0.0,0.0,0.0,0.0,0.0,0
-25.0,-4.0,7.0,-6.0,3.0,0.0,8.0,-4.0,0.0,0.0,0.0,0.0,0.0,0.0,0.0,0.0,0
-29.0,-29.0,-5.0,-10.0,-7.0,7.0,6.0,-1.0,0.0,0.0,0.0,0.0,0.0,0.0,0.0,0.0,0
-27.0,-14.0,-7.0,-17.0,-8.0,6.0,4.0,-4.0,0.0,0.0,0.0,0.0,0.0,0.0,0.0,0.0,0
-17.0,4.0,-6.0,-28.0,-13.0,3.0,-1.0,-6.0,0.0,0.0,0.0,0.0,0.0,0.0,0.0,0.0,0
18.0,21.0,0.0,-24.0,-12.0,-2.0,-8.0,-9.0,0.0,0.0,0.0,0.0,0.0,0.0,0.0,0.0,0
52.0,50.0,7.0,-3.0,4.0,-9.0,-9.0,-3.0,0.0,0.0,0.0,0.0,0.0,0.0,0.0,0.0,0
66.0,46.0,21.0,31.0,10.0,-5.0,-8.0,-3.0,0.0,0.0,0.0,0.0,0.0,0.0,0.0,0.0,0
53.0,4.0,15.0,38.0,12.0,1.0,-17.0,1.0,0.0,0.0,0.0,0.0,0.0,0.0,0.0,0.0,0
22.0,-38.0,-9.0,20.0,5.0,-3.0,-17.0,2.0,0.0,0.0,0.0,0.0,0.0,0.0,0.0,0.0,0
-17.0,-59.0,-29.0,-8.0,1.0,-10.0,-14.0,4.0,0.0,0.0,0.0,0.0,0.0,0.0,0.0,0.0,0
-34.0,-55.0,-39.0,-24.0,-5.0,-10.0,-10.0,9.0,0.0,0.0,0.0,0.0,0.0,0.0,0.0,0.0,0
-7.0,-34.0,-45.0,-22.0,-9.0,-13.0,-17.0,7.0,0.0,0.0,0.0,0.0,0.0,0.0,0.0,0.0,0
-15.0,-30.0,-42.0,-26.0,-13.0,-11.0,-19.0,1.0,0.0,0.0,0.0,0.0,0.0,0.0,0.0,0.0,0
-21.0,14.0,-22.0,-14.0,-9.0,-15.0,-16.0,1.0,0.0,0.0,0.0,0.0,0.0,0.0,0.0,0.0,0
11.0,72.0,4.0,8.0,-3.0,-4.0,-7.0,6.0,0.0,0.0,0.0,0.0,0.0,0.0,0.0,0.0,0
5.0,89.0,42.0,19.0,7.0,1.0,7.0,-3.0,0.0,0.0,0.0,0.0,0.0,0.0,0.0,0.0,0
-23.0,42.0,46.0,5.0,-7.0,1.0,14.0,-13.0,0.0,0.0,0.0,0.0,0.0,0.0,0.0,0.0,0
-24.0,-26.0,32.0,-3.0,-12.0,2.0,9.0,-13.0,0.0,0.0,0.0,0.0,0.0,0.0,0.0,0.0,0
-10.0,-53.0,24.0,6.0,2.0,3.0,18.0,-15.0,0.0,0.0,0.0,0.0,0.0,0.0,0.0,0.0,0
-17.0,-61.0,5.0,10.0,5.0,12.0,18.0,-12.0,0.0,0.0,0.0,0.0,0.0,0.0,0.0,0.0,0
-22.0,-68.0,-15.0,-5.0,1.0,8.0,8.0,-5.0,0.0,0.0,0.0,0.0,0.0,0.0,0.0,0.0,0
-9.0,-32.0,-16.0,-5.0,0.0,9.0,5.0,-7.0,0.0,0.0,0.0,0.0,0.0,0.0,0.0,0.0,0
15.0,15.0,-9.0,-6.0,8.0,3.0,5.0,-3.0,0.0,0.0,0.0,0.0,0.0,0.0,0.0,0.0,0
33.0,65.0,0.0,-6.0,8.0,-1.0,0.0,-1.0,0.0,0.0,0.0,0.0,0.0,0.0,0.0,0.0,0
42.0,84.0,-1.0,-7.0,5.0,0.0,-4.0,-1.0,0.0,0.0,0.0,0.0,0.0,0.0,0.0,0.0,0
7.0,47.0,1.0,-2.0,1.0,-2.0,-1.0,-3.0,0.0,0.0,0.0,0.0,0.0,0.0,0.0,0.0,0
-23.0,20.0,3.0,-9.0,-13.0,-13.0,-6.0,-6.0,0.0,0.0,0.0,0.0,0.0,0.0,0.0,0.0,0
-36.0,-17.0,-6.0,-15.0,-20.0,-3.0,-15.0,-1.0,0.0,0.0,0.0,0.0,0.0,0.0,0.0,0.0,0
-38.0,-62.0,-20.0,-8.0,-13.0,-10.0,-20.0,18.0,0.0,0.0,0.0,0.0,0.0,0.0,0.0,0.0,0
-28.0,-74.0,-19.0,2.0,-2.0,-8.0,-25.0,11.0,0.0,0.0,0.0,0.0,0.0,0.0,0.0,0.0,0
-14.0,-62.0,-19.0,0.0,-4.0,-6.0,-24.0,-4.0,0.0,0.0,0.0,0.0,0.0,0.0,0.0,0.0,0
28.0,-31.0,-29.0,-7.0,-10.0,-11.0,-21.0,-2.0,0.0,0.0,0.0,0.0,0.0,0.0,0.0,0.0,0
47.0,8.0,-14.0,-6.0,-6.0,-13.0,-13.0,1.0,0.0,0.0,0.0,0.0,0.0,0.0,0.0,0.0,0
50.0,39.0,1.0,0.0,10.0,-11.0,-8.0,1.0,0.0,0.0,0.0,0.0,0.0,0.0,0.0,0.0,0
45.0,37.0,9.0,8.0,11.0,-4.0,-6.0,1.0,0.0,0.0,0.0,0.0,0.0,0.0,0.0,0.0,0
2.0,17.0,8.0,7.0,0.0,-4.0,12.0,-5.0,0.0,0.0,0.0,0.0,0.0,0.0,0.0,0.0,0
-19.0,0.0,9.0,0.0,-5.0,7.0,17.0,-13.0,0.0,0.0,0.0,0.0,0.0,0.0,0.0,0.0,0
-12.0,14.0,9.0,-3.0,-4.0,9.0,11.0,-17.0,0.0,0.0,0.0,0.0,0.0,0.0,0.0,0.0,0
-35.0,6.0,14.0,4.0,-2.0,6.0,17.0,-14.0,0.0,0.0,0.0,0.0,0.0,0.0,0.0,0.0,0
-43.0,0.0,12.0,5.0,-2.0,6.0,21.0,-6.0,0.0,0.0,0.0,0.0,0.0,0.0,0.0,0.0,0
-37.0,-6.0,9.0,3.0,-2.0,4.0,6.0,-1.0,0.0,0.0,0.0,0.0,0.0,0.0,0.0,0.0,0
-31.0,-19.0,7.0,-3.0,-2.0,-2.0,2.0,-5.0,0.0,0.0,0.0,0.0,0.0,0.0,0.0,0.0,0
-5.0,3.0,-2.0,-11.0,-6.0,-2.0,-3.0,-4.0,0.0,0.0,0.0,0.0,0.0,0.0,0.0,0.0,0
-9.0,-7.0,-7.0,-16.0,-9.0,-1.0,-3.0,-7.0,0.0,0.0,0.0,0.0,0.0,0.0,0.0,0.0,0
-11.0,-33.0,-1.0,-17.0,0.0,-3.0,-2.0,-1.0,0.0,0.0,0.0,0.0,0.0,0.0,0.0,0.0,0
6.0,-9.0,0.0,-14.0,5.0,1.0,-2.0,-3.0,0.0,0.0,0.0,0.0,0.0,0.0,0.0,0.0,0
13.0,20.0,1.0,-10.0,1.0,5.0,-3.0,0.0,0.0,0.0,0.0,0.0,0.0,0.0,0.0,0.0,0
25.0,9.0,-10.0,-6.0,3.0,-7.0,-15.0,3.0,0.0,0.0,0.0,0.0,0.0,0.0,0.0,0.0,0
43.0,11.0,-19.0,2.0,6.0,-10.0,-19.0,3.0,0.0,0.0,0.0,0.0,0.0,0.0,0.0,0.0,0
11.0,13.0,-19.0,8.0,-1.0,-10.0,-11.0,1.0,0.0,0.0,0.0,0.0,0.0,0.0,0.0,0.0,0
-25.0,-19.0,-20.0,5.0,-15.0,-6.0,-18.0,5.0,0.0,0.0,0.0,0.0,0.0,0.0,0.0,0.0,0
-10.0,-31.0,-21.0,-10.0,-20.0,-13.0,-31.0,1.0,0.0,0.0,0.0,0.0,0.0,0.0,0.0,0.0,0
-6.0,-51.0,-19.0,-1.0,-14.0,-14.0,-21.0,3.0,0.0,0.0,0.0,0.0,0.0,0.0,0.0,0.0,0
-17.0,-55.0,-11.0,9.0,-9.0,-2.0,-12.0,9.0,0.0,0.0,0.0,0.0,0.0,0.0,0.0,0.0,0
40.0,11.0,12.0,6.0,-1.0,2.0,5.0,9.0,0.0,0.0,0.0,0.0,0.0,0.0,0.0,0.0,0
70.0,61.0,22.0,-6.0,-2.0,-1.0,14.0,-4.0,0.0,0.0,0.0,0.0,0.0,0.0,0.0,0.0,0
36.0,42.0,35.0,-5.0,6.0,-1.0,9.0,-8.0,0.0,0.0,0.0,0.0,0.0,0.0,0.0,0.0,0
-17.0,24.0,14.0,-5.0,5.0,1.0,8.0,-12.0,0.0,0.0,0.0,0.0,0.0,0.0,0.0,0.0,0
-62.0,17.0,-3.0,-6.0,10.0,1.0,17.0,-16.0,0.0,0.0,0.0,0.0,0.0,0.0,0.0,0.0,0
-76.0,2.0,-15.0,-7.0,7.0,3.0,15.0,-19.0,0.0,0.0,0.0,0.0,0.0,0.0,0.0,0.0,0
-51.0,-28.0,-8.0,-2.0,-1.0,5.0,8.0,-11.0,0.0,0.0,0.0,0.0,0.0,0.0,0.0,0.0,0
-28.0,-33.0,5.0,9.0,4.0,14.0,11.0,-8.0,0.0,0.0,0.0,0.0,0.0,0.0,0.0,0.0,0
-14.0,-20.0,-2.0,-3.0,5.0,11.0,6.0,0.0,0.0,0.0,0.0,0.0,0.0,0.0,0.0,0.0,0
6.0,-10.0,-8.0,-4.0,-7.0,2.0,-3.0,0.0,0.0,0.0,0.0,0.0,0.0,0.0,0.0,0.0,0
14.0,-6.0,-13.0,-7.0,-16.0,-10.0,-6.0,-6.0,0.0,0.0,0.0,0.0,0.0,0.0,0.0,0.0,0
12.0,3.0,-7.0,-10.0,-15.0,-4.0,-9.0,1.0,0.0,0.0,0.0,0.0,0.0,0.0,0.0,0.0,0
15.0,20.0,7.0,-7.0,-5.0,-10.0,-10.0,6.0,0.0,0.0,0.0,0.0,0.0,0.0,0.0,0.0,0
20.0,21.0,9.0,-1.0,5.0,-12.0,-13.0,1.0,0.0,0.0,0.0,0.0,0.0,0.0,0.0,0.0,0
25.0,2.0,-1.0,2.0,1.0,-6.0,-19.0,8.0,0.0,0.0,0.0,0.0,0.0,0.0,0.0,0.0,0
20.0,-19.0,-10.0,4.0,2.0,-6.0,-12.0,2.0,0.0,0.0,0.0,0.0,0.0,0.0,0.0,0.0,0
16.0,-14.0,-9.0,1.0,-1.0,-8.0,-19.0,-1.0,0.0,0.0,0.0,0.0,0.0,0.0,0.0,0.0,0
17.0,-19.0,-23.0,-4.0,-8.0,-8.0,-21.0,6.0,0.0,0.0,0.0,0.0,0.0,0.0,0.0,0.0,0
1.0,-19.0,-27.0,-3.0,-8.0,-6.0,-11.0,-2.0,0.0,0.0,0.0,0.0,0.0,0.0,0.0,0.0,0
2.0,-8.0,-13.0,-2.0,-11.0,-6.0,-2.0,2.0,0.0,0.0,0.0,0.0,0.0,0.0,0.0,0.0,0
-3.0,-9.0,-16.0,-9.0,-14.0,-9.0,-5.0,2.0,0.0,0.0,0.0,0.0,0.0,0.0,0.0,0.0,0
-23.0,16.0,2.0,-8.0,-5.0,-8.0,6.0,-2.0,0.0,0.0,0.0,0.0,0.0,0.0,0.0,0.0,0
-26.0,35.0,31.0,7.0,2.0,1.0,9.0,-6.0,0.0,0.0,0.0,0.0,0.0,0.0,0.0,0.0,0
-23.0,17.0,23.0,11.0,6.0,6.0,16.0,-4.0,0.0,0.0,0.0,0.0,0.0,0.0,0.0,0.0,0
-22.0,-16.0,13.0,15.0,4.0,8.0,17.0,-9.0,0.0,0.0,0.0,0.0,0.0,0.0,0.0,0.0,0
-25.0,-19.0,20.0,5.0,10.0,5.0,19.0,-17.0,0.0,0.0,0.0,0.0,0.0,0.0,0.0,0.0,0
-25.0,-34.0,-23.0,-23.0,1.0,2.0,11.0,-16.0,0.0,0.0,0.0,0.0,0.0,0.0,0.0,0.0,0
-4.0,-21.0,-34.0,-34.0,-3.0,-1.0,5.0,-9.0,0.0,0.0,0.0,0.0,0.0,0.0,0.0,0.0,0
8.0,18.0,-13.0,-16.0,5.0,9.0,1.0,2.0,0.0,0.0,0.0,0.0,0.0,0.0,0.0,0.0,0
9.0,34.0,15.0,3.0,-4.0,9.0,-2.0,2.0,0.0,0.0,0.0,0.0,0.0,0.0,0.0,0.0,0
10.0,32.0,18.0,4.0,-5.0,-3.0,-6.0,2.0,0.0,0.0,0.0,0.0,0.0,0.0,0.0,0.0,0
-2.0,1.0,11.0,2.0,-5.0,-2.0,-4.0,1.0,0.0,0.0,0.0,0.0,0.0,0.0,0.0,0.0,0
-12.0,-19.0,19.0,12.0,-6.0,-10.0,-3.0,0.0,0.0,0.0,0.0,0.0,0.0,0.0,0.0,0.0,0
-4.0,-11.0,13.0,21.0,-3.0,-8.0,-16.0,0.0,0.0,0.0,0.0,0.0,0.0,0.0,0.0,0.0,0
8.0,-21.0,-14.0,8.0,-7.0,-3.0,-23.0,5.0,0.0,0.0,0.0,0.0,0.0,0.0,0.0,0.0,0
26.0,4.0,-19.0,-1.0,-9.0,-7.0,-16.0,6.0,0.0,0.0,0.0,0.0,0.0,0.0,0.0,0.0,0
26.0,-4.0,-18.0,-9.0,-3.0,-12.0,-9.0,1.0,0.0,0.0,0.0,0.0,0.0,0.0,0.0,0.0,0
24.0,-20.0,-29.0,-13.0,-5.0,-7.0,-13.0,11.0,0.0,0.0,0.0,0.0,0.0,0.0,0.0,0.0,0
20.0,-22.0,-21.0,-13.0,-3.0,-5.0,-12.0,3.0,0.0,0.0,0.0,0.0,0.0,0.0,0.0,0.0,0
7.0,-17.0,-23.0,-7.0,-3.0,-11.0,-13.0,-2.0,0.0,0.0,0.0,0.0,0.0,0.0,0.0,0.0,0
-10.0,-9.0,-25.0,-7.0,0.0,-1.0,-9.0,-3.0,0.0,0.0,0.0,0.0,0.0,0.0,0.0,0.0,0
-27.0,-9.0,-14.0,-18.0,-8.0,3.0,6.0,-11.0,0.0,0.0,0.0,0.0,0.0,0.0,0.0,0.0,0
-29.0,0.0,-2.0,-23.0,-8.0,1.0,10.0,-7.0,0.0,0.0,0.0,0.0,0.0,0.0,0.0,0.0,0
-27.0,13.0,4.0,-13.0,-6.0,-6.0,12.0,-14.0,0.0,0.0,0.0,0.0,0.0,0.0,0.0,0.0,0
-24.0,28.0,19.0,3.0,5.0,-1.0,19.0,-14.0,0.0,0.0,0.0,0.0,0.0,0.0,0.0,0.0,0
-19.0,24.0,25.0,8.0,5.0,7.0,11.0,-13.0,0.0,0.0,0.0,0.0,0.0,0.0,0.0,0.0,0
-19.0,-6.0,28.0,19.0,9.0,11.0,5.0,-2.0,0.0,0.0,0.0,0.0,0.0,0.0,0.0,0.0,0
-5.0,-3.0,32.0,24.0,11.0,12.0,9.0,0.0,0.0,0.0,0.0,0.0,0.0,0.0,0.0,0.0,0
5.0,2.0,29.0,25.0,7.0,10.0,8.0,0.0,0.0,0.0,0.0,0.0,0.0,0.0,0.0,0.0,0
5.0,3.0,12.0,11.0,-2.0,7.0,6.0,-5.0,0.0,0.0,0.0,0.0,0.0,0.0,0.0,0.0,0
9.0,19.0,3.0,2.0,-5.0,-1.0,-4.0,-3.0,0.0,0.0,0.0,0.0,0.0,0.0,0.0,0.0,0
4.0,6.0,-8.0,-2.0,-5.0,-5.0,-10.0,2.0,0.0,0.0,0.0,0.0,0.0,0.0,0.0,0.0,0
4.0,-8.0,-19.0,-19.0,-16.0,-10.0,-12.0,3.0,0.0,0.0,0.0,0.0,0.0,0.0,0.0,0.0,0
13.0,-7.0,-35.0,-38.0,-17.0,-13.0,-13.0,4.0,0.0,0.0,0.0,0.0,0.0,0.0,0.0,0.0,0
9.0,-1.0,-48.0,-39.0,-13.0,-12.0,-24.0,5.0,0.0,0.0,0.0,0.0,0.0,0.0,0.0,0.0,0
2.0,9.0,-32.0,-22.0,-10.0,-10.0,-18.0,-10.0,0.0,0.0,0.0,0.0,0.0,0.0,0.0,0.0,0
-17.0,-22.0,-17.0,-6.0,-3.0,-10.0,-20.0,-7.0,0.0,0.0,0.0,0.0,0.0,0.0,0.0,0.0,0
-43.0,-64.0,-9.0,15.0,1.0,-8.0,-22.0,7.0,0.0,0.0,0.0,0.0,0.0,0.0,0.0,0.0,0
-1.0,-26.0,4.0,20.0,10.0,-6.0,-10.0,10.0,0.0,0.0,0.0,0.0,0.0,0.0,0.0,0.0,0
61.0,12.0,6.0,17.0,6.0,-1.0,-1.0,5.0,0.0,0.0,0.0,0.0,0.0,0.0,0.0,0.0,0
44.0,3.0,11.0,7.0,6.0,-4.0,-3.0,6.0,0.0,0.0,0.0,0.0,0.0,0.0,0.0,0.0,0
-7.0,-28.0,7.0,6.0,4.0,-2.0,9.0,1.0,0.0,0.0,0.0,0.0,0.0,0.0,0.0,0.0,0
-3.0,-14.0,6.0,8.0,-7.0,0.0,15.0,-10.0,0.0,0.0,0.0,0.0,0.0,0.0,0.0,0.0,0
-13.0,6.0,4.0,-2.0,-12.0,3.0,12.0,-17.0,0.0,0.0,0.0,0.0,0.0,0.0,0.0,0.0,0
-47.0,21.0,15.0,-10.0,-5.0,9.0,16.0,-12.0,0.0,0.0,0.0,0.0,0.0,0.0,0.0,0.0,0
-33.0,34.0,18.0,-8.0,-8.0,3.0,12.0,-5.0,0.0,0.0,0.0,0.0,0.0,0.0,0.0,0.0,0
-40.0,7.0,-3.0,-12.0,-13.0,-1.0,4.0,-14.0,0.0,0.0,0.0,0.0,0.0,0.0,0.0,0.0,0
-31.0,-5.0,-4.0,-12.0,-3.0,4.0,6.0,-12.0,0.0,0.0,0.0,0.0,0.0,0.0,0.0,0.0,0
13.0,30.0,9.0,-15.0,-3.0,6.0,5.0,-5.0,0.0,0.0,0.0,0.0,0.0,0.0,0.0,0.0,0
22.0,38.0,10.0,-12.0,-2.0,-5.0,0.0,-4.0,0.0,0.0,0.0,0.0,0.0,0.0,0.0,0.0,0
1.0,0.0,-5.0,3.0,8.0,-3.0,-9.0,-8.0,0.0,0.0,0.0,0.0,0.0,0.0,0.0,0.0,0
3.0,-1.0,-4.0,13.0,13.0,6.0,-7.0,0.0,0.0,0.0,0.0,0.0,0.0,0.0,0.0,0.0,0
19.0,-5.0,0.0,14.0,7.0,0.0,-7.0,-1.0,0.0,0.0,0.0,0.0,0.0,0.0,0.0,0.0,0
4.0,-23.0,-17.0,-2.0,-1.0,-8.0,-13.0,2.0,0.0,0.0,0.0,0.0,0.0,0.0,0.0,0.0,0
-4.0,-45.0,-30.0,-10.0,-12.0,-9.0,-9.0,3.0,0.0,0.0,0.0,0.0,0.0,0.0,0.0,0.0,0
4.0,-44.0,-17.0,-6.0,-10.0,-9.0,-15.0,0.0,0.0,0.0,0.0,0.0,0.0,0.0,0.0,0.0,0
9.0,-21.0,0.0,8.0,1.0,-6.0,-21.0,1.0,0.0,0.0,0.0,0.0,0.0,0.0,0.0,0.0,0
16.0,-5.0,2.0,5.0,-11.0,-11.0,-19.0,12.0,0.0,0.0,0.0,0.0,0.0,0.0,0.0,0.0,0
15.0,-1.0,-12.0,-11.0,-19.0,-12.0,-8.0,4.0,0.0,0.0,0.0,0.0,0.0,0.0,0.0,0.0,0
8.0,5.0,-10.0,-21.0,-11.0,-11.0,-11.0,-3.0,0.0,0.0,0.0,0.0,0.0,0.0,0.0,0.0,0
17.0,17.0,-15.0,-21.0,-9.0,-11.0,-11.0,3.0,0.0,0.0,0.0,0.0,0.0,0.0,0.0,0.0,0
4.0,8.0,-12.0,-8.0,1.0,-5.0,4.0,-10.0,0.0,0.0,0.0,0.0,0.0,0.0,0.0,0.0,0
-23.0,-9.0,-22.0,-1.0,8.0,5.0,14.0,-5.0,0.0,0.0,0.0,0.0,0.0,0.0,0.0,0.0,0
-41.0,-29.0,-6.0,16.0,14.0,3.0,17.0,-4.0,0.0,0.0,0.0,0.0,0.0,0.0,0.0,0.0,0
-42.0,-3.0,35.0,23.0,15.0,5.0,17.0,-9.0,0.0,0.0,0.0,0.0,0.0,0.0,0.0,0.0,0
-21.0,20.0,36.0,18.0,7.0,9.0,17.0,-9.0,0.0,0.0,0.0,0.0,0.0,0.0,0.0,0.0,0
-10.0,14.0,7.0,1.0,2.0,13.0,8.0,-11.0,0.0,0.0,0.0,0.0,0.0,0.0,0.0,0.0,0
-22.0,2.0,-6.0,-4.0,0.0,4.0,6.0,-12.0,0.0,0.0,0.0,0.0,0.0,0.0,0.0,0.0,0
-11.0,25.0,1.0,-8.0,-8.0,-1.0,9.0,-3.0,0.0,0.0,0.0,0.0,0.0,0.0,0.0,0.0,0
21.0,42.0,25.0,-4.0,-5.0,-4.0,3.0,3.0,0.0,0.0,0.0,0.0,0.0,0.0,0.0,0.0,0
22.0,24.0,29.0,5.0,-3.0,1.0,-3.0,-3.0,0.0,0.0,0.0,0.0,0.0,0.0,0.0,0.0,0
15.0,-12.0,19.0,5.0,-6.0,-3.0,-7.0,-9.0,0.0,0.0,0.0,0.0,0.0,0.0,0.0,0.0,0
2.0,-27.0,6.0,-6.0,0.0,-6.0,-10.0,-4.0,0.0,0.0,0.0,0.0,0.0,0.0,0.0,0.0,0
-17.0,-49.0,-30.0,-16.0,-3.0,-9.0,-13.0,-1.0,0.0,0.0,0.0,0.0,0.0,0.0,0.0,0.0,0
-9.0,-50.0,-60.0,-32.0,-14.0,-10.0,-26.0,5.0,0.0,0.0,0.0,0.0,0.0,0.0,0.0,0.0,0
4.0,-28.0,-56.0,-30.0,-10.0,-10.0,-19.0,4.0,0.0,0.0,0.0,0.0,0.0,0.0,0.0,0.0,0
14.0,-10.0,-39.0,-10.0,-5.0,-12.0,-13.0,3.0,0.0,0.0,0.0,0.0,0.0,0.0,0.0,0.0,0
34.0,-4.0,-29.0,-1.0,-8.0,-18.0,-14.0,2.0,0.0,0.0,0.0,0.0,0.0,0.0,0.0,0.0,0
24.0,20.0,-12.0,-7.0,-12.0,-14.0,-12.0,2.0,0.0,0.0,0.0,0.0,0.0,0.0,0.0,0.0,0
17.0,25.0,11.0,-2.0,-5.0,-10.0,-9.0,9.0,0.0,0.0,0.0,0.0,0.0,0.0,0.0,0.0,0
6.0,12.0,12.0,5.0,-1.0,0.0,-10.0,1.0,0.0,0.0,0.0,0.0,0.0,0.0,0.0,0.0,0
-12.0,10.0,16.0,11.0,8.0,10.0,-1.0,-9.0,0.0,0.0,0.0,0.0,0.0,0.0,0.0,0.0,0
-26.0,2.0,17.0,11.0,11.0,11.0,10.0,-8.0,0.0,0.0,0.0,0.0,0.0,0.0,0.0,0.0,0
-32.0,-30.0,16.0,7.0,10.0,5.0,16.0,-9.0,0.0,0.0,0.0,0.0,0.0,0.0,0.0,0.0,0
-26.0,-21.0,10.0,2.0,4.0,2.0,22.0,-6.0,0.0,0.0,0.0,0.0,0.0,0.0,0.0,0.0,0
-24.0,7.0,16.0,7.0,-2.0,4.0,16.0,-10.0,0.0,0.0,0.0,0.0,0.0,0.0,0.0,0.0,0
-7.0,36.0,27.0,12.0,-3.0,-6.0,11.0,-11.0,0.0,0.0,0.0,0.0,0.0,0.0,0.0,0.0,0
-13.0,36.0,28.0,9.0,0.0,-2.0,10.0,-9.0,0.0,0.0,0.0,0.0,0.0,0.0,0.0,0.0,0
-16.0,10.0,17.0,-2.0,-4.0,3.0,5.0,-6.0,0.0,0.0,0.0,0.0,0.0,0.0,0.0,0.0,0
-11.0,-8.0,0.0,0.0,3.0,7.0,-6.0,-5.0,0.0,0.0,0.0,0.0,0.0,0.0,0.0,0.0,0
2.0,-10.0,-15.0,-4.0,-4.0,3.0,-8.0,1.0,0.0,0.0,0.0,0.0,0.0,0.0,0.0,0.0,0
-10.0,-38.0,-34.0,-16.0,-4.0,-1.0,-10.0,0.0,0.0,0.0,0.0,0.0,0.0,0.0,0.0,0.0,0
-15.0,-65.0,-43.0,-33.0,-7.0,-7.0,-7.0,1.0,0.0,0.0,0.0,0.0,0.0,0.0,0.0,0.0,0
25.0,-38.0,-28.0,-28.0,-6.0,-11.0,-9.0,2.0,0.0,0.0,0.0,0.0,0.0,0.0,0.0,0.0,0
35.0,0.0,-23.0,-14.0,-6.0,-5.0,-21.0,8.0,0.0,0.0,0.0,0.0,0.0,0.0,0.0,0.0,0
37.0,31.0,-21.0,-4.0,-9.0,-3.0,-21.0,5.0,0.0,0.0,0.0,0.0,0.0,0.0,0.0,0.0,0
43.0,73.0,-11.0,1.0,-6.0,-8.0,-5.0,5.0,0.0,0.0,0.0,0.0,0.0,0.0,0.0,0.0,0
43.0,65.0,7.0,13.0,0.0,-12.0,-10.0,-2.0,0.0,0.0,0.0,0.0,0.0,0.0,0.0,0.0,0
3.0,3.0,5.0,13.0,-2.0,-10.0,-16.0,3.0,0.0,0.0,0.0,0.0,0.0,0.0,0.0,0.0,0
-36.0,-47.0,-5.0,0.0,-7.0,-10.0,-13.0,0.0,0.0,0.0,0.0,0.0,0.0,0.0,0.0,0.0,0
-44.0,-68.0,-7.0,-4.0,-9.0,-5.0,-10.0,-5.0,0.0,0.0,0.0,0.0,0.0,0.0,0.0,0.0,0
-52.0,-64.0,5.0,4.0,-1.0,-2.0,5.0,-13.0,0.0,0.0,0.0,0.0,0.0,0.0,0.0,0.0,0
-28.0,-30.0,14.0,3.0,7.0,1.0,13.0,-12.0,0.0,0.0,0.0,0.0,0.0,0.0,0.0,0.0,0
-2.0,3.0,20.0,3.0,2.0,2.0,11.0,-8.0,0.0,0.0,0.0,0.0,0.0,0.0,0.0,0.0,0
3.0,27.0,11.0,-7.0,-4.0,4.0,19.0,-6.0,0.0,0.0,0.0,0.0,0.0,0.0,0.0,0.0,0
2.0,14.0,2.0,-13.0,-1.0,6.0,19.0,-11.0,0.0,0.0,0.0,0.0,0.0,0.0,0.0,0.0,0
1.0,20.0,-2.0,-4.0,5.0,8.0,9.0,-4.0,0.0,0.0,0.0,0.0,0.0,0.0,0.0,0.0,0
-5.0,30.0,7.0,10.0,10.0,9.0,7.0,-1.0,0.0,0.0,0.0,0.0,0.0,0.0,0.0,0.0,0
-15.0,29.0,13.0,12.0,13.0,9.0,5.0,-2.0,0.0,0.0,0.0,0.0,0.0,0.0,0.0,0.0,0
-10.0,32.0,11.0,4.0,10.0,0.0,4.0,-8.0,0.0,0.0,0.0,0.0,0.0,0.0,0.0,0.0,0
-5.0,12.0,-2.0,-3.0,0.0,-4.0,-4.0,-3.0,0.0,0.0,0.0,0.0,0.0,0.0,0.0,0.0,0
8.0,11.0,-2.0,-4.0,-5.0,-2.0,-8.0,-4.0,0.0,0.0,0.0,0.0,0.0,0.0,0.0,0.0,0
16.0,3.0,-4.0,0.0,-9.0,-5.0,-5.0,1.0,0.0,0.0,0.0,0.0,0.0,0.0,0.0,0.0,0
-11.0,-65.0,-16.0,-8.0,-18.0,-7.0,-13.0,3.0,0.0,0.0,0.0,0.0,0.0,0.0,0.0,0.0,0
-10.0,-102.0,-27.0,-9.0,-16.0,-8.0,-22.0,8.0,0.0,0.0,0.0,0.0,0.0,0.0,0.0,0.0,0
7.0,-63.0,-20.0,-14.0,-11.0,-14.0,-15.0,7.0,0.0,0.0,0.0,0.0,0.0,0.0,0.0,0.0,0
9.0,-26.0,-20.0,-13.0,-10.0,-14.0,-16.0,2.0,0.0,0.0,0.0,0.0,0.0,0.0,0.0,0.0,0
18.0,10.0,-24.0,-10.0,-1.0,-14.0,-21.0,3.0,0.0,0.0,0.0,0.0,0.0,0.0,0.0,0.0,0
10.0,24.0,-17.0,-5.0,-1.0,-11.0,-14.0,-2.0,0.0,0.0,0.0,0.0,0.0,0.0,0.0,0.0,0
0.0,50.0,4.0,5.0,2.0,-5.0,-6.0,0.0,0.0,0.0,0.0,0.0,0.0,0.0,0.0,0.0,0
33.0,93.0,12.0,1.0,-8.0,-2.0,-6.0,5.0,0.0,0.0,0.0,0.0,0.0,0.0,0.0,0.0,0
21.0,60.0,14.0,4.0,-2.0,-7.0,-1.0,-5.0,0.0,0.0,0.0,0.0,0.0,0.0,0.0,0.0,0
-9.0,-12.0,9.0,2.0,2.0,-7.0,7.0,-17.0,0.0,0.0,0.0,0.0,0.0,0.0,0.0,0.0,0
-21.0,-51.0,4.0,-4.0,-2.0,2.0,13.0,-12.0,0.0,0.0,0.0,0.0,0.0,0.0,0.0,0.0,0
-29.0,-57.0,0.0,-9.0,2.0,6.0,19.0,-4.0,0.0,0.0,0.0,0.0,0.0,0.0,0.0,0.0,0
-47.0,-47.0,6.0,-6.0,0.0,12.0,17.0,-8.0,0.0,0.0,0.0,0.0,0.0,0.0,0.0,0.0,0
-33.0,-18.0,6.0,10.0,4.0,13.0,15.0,-8.0,0.0,0.0,0.0,0.0,0.0,0.0,0.0,0.0,0
12.0,19.0,4.0,14.0,0.0,10.0,10.0,-6.0,0.0,0.0,0.0,0.0,0.0,0.0,0.0,0.0,0
-6.0,-9.0,-5.0,-1.0,8.0,5.0,5.0,2.0,0.0,0.0,0.0,0.0,0.0,0.0,0.0,0.0,0
-22.0,-27.0,-2.0,-6.0,2.0,5.0,3.0,-8.0,0.0,0.0,0.0,0.0,0.0,0.0,0.0,0.0,0
-15.0,10.0,14.0,3.0,-2.0,-6.0,-10.0,-5.0,0.0,0.0,0.0,0.0,0.0,0.0,0.0,0.0,0
-13.0,46.0,20.0,6.0,-4.0,-15.0,-7.0,-3.0,0.0,0.0,0.0,0.0,0.0,0.0,0.0,0.0,0
-19.0,38.0,-7.0,-16.0,-12.0,-16.0,-6.0,-4.0,0.0,0.0,0.0,0.0,0.0,0.0,0.0,0.0,0
0.0,14.0,-32.0,-34.0,-17.0,-7.0,-17.0,6.0,0.0,0.0,0.0,0.0,0.0,0.0,0.0,0.0,0
54.0,9.0,-23.0,-25.0,-9.0,-9.0,-20.0,11.0,0.0,0.0,0.0,0.0,0.0,0.0,0.0,0.0,0
56.0,-16.0,-21.0,0.0,-5.0,-12.0,-14.0,9.0,0.0,0.0,0.0,0.0,0.0,0.0,0.0,0.0,0
31.0,-9.0,4.0,26.0,0.0,-4.0,-14.0,5.0,0.0,0.0,0.0,0.0,0.0,0.0,0.0,0.0,0
17.0,-21.0,9.0,29.0,6.0,-9.0,-20.0,2.0,0.0,0.0,0.0,0.0,0.0,0.0,0.0,0.0,0
-2.0,-51.0,-3.0,20.0,7.0,-6.0,-15.0,9.0,0.0,0.0,0.0,0.0,0.0,0.0,0.0,0.0,0
-8.0,-36.0,-20.0,0.0,-6.0,-2.0,-8.0,-1.0,0.0,0.0,0.0,0.0,0.0,0.0,0.0,0.0,0
-7.0,-14.0,-17.0,-9.0,-8.0,-4.0,-7.0,-7.0,0.0,0.0,0.0,0.0,0.0,0.0,0.0,0.0,0
-5.0,25.0,0.0,-7.0,-4.0,-7.0,9.0,-9.0,0.0,0.0,0.0,0.0,0.0,0.0,0.0,0.0,0
6.0,50.0,4.0,-18.0,-3.0,4.0,10.0,-11.0,0.0,0.0,0.0,0.0,0.0,0.0,0.0,0.0,0
10.0,46.0,4.0,-24.0,-3.0,6.0,13.0,-12.0,0.0,0.0,0.0,0.0,0.0,0.0,0.0,0.0,0
-16.0,30.0,2.0,-29.0,-12.0,4.0,16.0,-15.0,0.0,0.0,0.0,0.0,0.0,0.0,0.0,0.0,0
-53.0,-27.0,0.0,-31.0,-11.0,-2.0,12.0,-16.0,0.0,0.0,0.0,0.0,0.0,0.0,0.0,0.0,0
-82.0,-103.0,-15.0,-15.0,-2.0,1.0,7.0,-3.0,0.0,0.0,0.0,0.0,0.0,0.0,0.0,0.0,0
-85.0,-96.0,0.0,13.0,7.0,4.0,14.0,6.0,0.0,0.0,0.0,0.0,0.0,0.0,0.0,0.0,0
-54.0,-37.0,19.0,30.0,8.0,9.0,17.0,-2.0,0.0,0.0,0.0,0.0,0.0,0.0,0.0,0.0,0
-16.0,3.0,2.0,7.0,0.0,5.0,0.0,-2.0,0.0,0.0,0.0,0.0,0.0,0.0,0.0,0.0,0
42.0,48.0,-22.0,2.0,-7.0,-5.0,-18.0,-6.0,0.0,0.0,0.0,0.0,0.0,0.0,0.0,0.0,0
88.0,76.0,-1.0,3.0,-4.0,-7.0,-10.0,2.0,0.0,0.0,0.0,0.0,0.0,0.0,0.0,0.0,0
92.0,77.0,30.0,12.0,8.0,4.0,-2.0,2.0,0.0,0.0,0.0,0.0,0.0,0.0,0.0,0.0,0
61.0,47.0,25.0,18.0,6.0,-1.0,-14.0,-2.0,0.0,0.0,0.0,0.0,0.0,0.0,0.0,0.0,0
31.0,15.0,11.0,5.0,0.0,-9.0,-19.0,1.0,0.0,0.0,0.0,0.0,0.0,0.0,0.0,0.0,0
-19.0,-11.0,-8.0,-10.0,-6.0,-12.0,-17.0,0.0,0.0,0.0,0.0,0.0,0.0,0.0,0.0,0.0,0
-44.0,-46.0,-21.0,-13.0,-5.0,-7.0,-17.0,-2.0,0.0,0.0,0.0,0.0,0.0,0.0,0.0,0.0,0
-34.0,-56.0,-34.0,-12.0,-8.0,-13.0,-26.0,10.0,0.0,0.0,0.0,0.0,0.0,0.0,0.0,0.0,0
-15.0,-42.0,-32.0,-8.0,-7.0,-5.0,-15.0,5.0,0.0,0.0,0.0,0.0,0.0,0.0,0.0,0.0,0
-9.0,-13.0,-11.0,8.0,-3.0,-9.0,-6.0,2.0,0.0,0.0,0.0,0.0,0.0,0.0,0.0,0.0,0
5.0,-22.0,-4.0,-3.0,-16.0,-15.0,-5.0,-1.0,0.0,0.0,0.0,0.0,0.0,0.0,0.0,0.0,0
4.0,-37.0,3.0,6.0,-9.0,-6.0,4.0,-8.0,0.0,0.0,0.0,0.0,0.0,0.0,0.0,0.0,0
-3.0,-14.0,3.0,4.0,4.0,4.0,15.0,-4.0,0.0,0.0,0.0,0.0,0.0,0.0,0.0,0.0,0
-14.0,16.0,1.0,-2.0,4.0,10.0,20.0,-9.0,0.0,0.0,0.0,0.0,0.0,0.0,0.0,0.0,0
-21.0,26.0,21.0,-1.0,18.0,16.0,24.0,-11.0,0.0,0.0,0.0,0.0,0.0,0.0,0.0,0.0,0
-13.0,33.0,23.0,-9.0,11.0,8.0,14.0,-14.0,0.0,0.0,0.0,0.0,0.0,0.0,0.0,0.0,0
-7.0,30.0,4.0,-22.0,-11.0,3.0,-2.0,-3.0,0.0,0.0,0.0,0.0,0.0,0.0,0.0,0.0,0
-5.0,20.0,0.0,-18.0,-12.0,3.0,6.0,-1.0,0.0,0.0,0.0,0.0,0.0,0.0,0.0,0.0,0
-11.0,8.0,0.0,-7.0,-11.0,6.0,2.0,-12.0,0.0,0.0,0.0,0.0,0.0,0.0,0.0,0.0,0
-13.0,-7.0,-7.0,-10.0,-10.0,-5.0,-7.0,-6.0,0.0,0.0,0.0,0.0,0.0,0.0,0.0,0.0,0
-21.0,-23.0,-9.0,-7.0,-9.0,-10.0,-7.0,-3.0,0.0,0.0,0.0,0.0,0.0,0.0,0.0,0.0,0
-15.0,-35.0,-15.0,-6.0,-13.0,-9.0,-4.0,-3.0,0.0,0.0,0.0,0.0,0.0,0.0,0.0,0.0,0
-1.0,-22.0,-11.0,-2.0,-6.0,-3.0,-3.0,-4.0,0.0,0.0,0.0,0.0,0.0,0.0,0.0,0.0,0
3.0,-16.0,3.0,11.0,2.0,-9.0,-7.0,2.0,0.0,0.0,0.0,0.0,0.0,0.0,0.0,0.0,0
22.0,-8.0,3.0,11.0,-1.0,-15.0,-16.0,5.0,0.0,0.0,0.0,0.0,0.0,0.0,0.0,0.0,0
43.0,12.0,5.0,9.0,9.0,-11.0,-17.0,6.0,0.0,0.0,0.0,0.0,0.0,0.0,0.0,0.0,0
16.0,3.0,-4.0,10.0,10.0,-1.0,-16.0,6.0,0.0,0.0,0.0,0.0,0.0,0.0,0.0,0.0,0
5.0,9.0,-12.0,2.0,9.0,3.0,-18.0,3.0,0.0,0.0,0.0,0.0,0.0,0.0,0.0,0.0,0
47.0,55.0,-10.0,0.0,7.0,0.0,-8.0,10.0,0.0,0.0,0.0,0.0,0.0,0.0,0.0,0.0,0
48.0,45.0,-7.0,0.0,-1.0,-6.0,-13.0,3.0,0.0,0.0,0.0,0.0,0.0,0.0,0.0,0.0,0
17.0,-12.0,-14.0,-9.0,-16.0,-6.0,-10.0,-3.0,0.0,0.0,0.0,0.0,0.0,0.0,0.0,0.0,0
-24.0,-56.0,-10.0,-8.0,-10.0,-1.0,7.0,-12.0,0.0,0.0,0.0,0.0,0.0,0.0,0.0,0.0,0
-56.0,-82.0,-7.0,-15.0,-10.0,-2.0,11.0,-11.0,0.0,0.0,0.0,0.0,0.0,0.0,0.0,0.0,0
-69.0,-63.0,-2.0,-12.0,-5.0,-1.0,10.0,-5.0,0.0,0.0,0.0,0.0,0.0,0.0,0.0,0.0,0
-54.0,5.0,21.0,7.0,10.0,5.0,21.0,-6.0,0.0,0.0,0.0,0.0,0.0,0.0,0.0,0.0,0
-42.0,36.0,21.0,6.0,7.0,7.0,20.0,-10.0,0.0,0.0,0.0,0.0,0.0,0.0,0.0,0.0,0
-12.0,41.0,11.0,1.0,-3.0,3.0,19.0,-9.0,0.0,0.0,0.0,0.0,0.0,0.0,0.0,0.0,0
17.0,42.0,12.0,-1.0,-6.0,-4.0,9.0,-10.0,0.0,0.0,0.0,0.0,0.0,0.0,0.0,0.0,0
24.0,28.0,9.0,-4.0,-1.0,-2.0,0.0,-6.0,0.0,0.0,0.0,0.0,0.0,0.0,0.0,0.0,0
19.0,4.0,10.0,7.0,2.0,6.0,-2.0,1.0,0.0,0.0,0.0,0.0,0.0,0.0,0.0,0.0,0
5.0,-28.0,-8.0,-1.0,2.0,2.0,-7.0,1.0,0.0,0.0,0.0,0.0,0.0,0.0,0.0,0.0,0
-4.0,-8.0,3.0,-2.0,3.0,0.0,-12.0,-1.0,0.0,0.0,0.0,0.0,0.0,0.0,0.0,0.0,0
6.0,17.0,2.0,1.0,-4.0,-5.0,-9.0,-5.0,0.0,0.0,0.0,0.0,0.0,0.0,0.0,0.0,0
10.0,2.0,-24.0,-12.0,-9.0,-8.0,-4.0,0.0,0.0,0.0,0.0,0.0,0.0,0.0,0.0,0.0,0
-6.0,-30.0,-39.0,-27.0,-9.0,-11.0,-16.0,5.0,0.0,0.0,0.0,0.0,0.0,0.0,0.0,0.0,0
-10.0,-42.0,-38.0,-27.0,-11.0,-9.0,-13.0,4.0,0.0,0.0,0.0,0.0,0.0,0.0,0.0,0.0,0
-4.0,-27.0,-30.0,-9.0,-7.0,-7.0,-10.0,1.0,0.0,0.0,0.0,0.0,0.0,0.0,0.0,0.0,0
22.0,-7.0,-25.0,-1.0,-5.0,-8.0,-24.0,5.0,0.0,0.0,0.0,0.0,0.0,0.0,0.0,0.0,0
35.0,-7.0,-16.0,4.0,-3.0,-14.0,-17.0,-4.0,0.0,0.0,0.0,0.0,0.0,0.0,0.0,0.0,0
20.0,-6.0,-1.0,15.0,-2.0,-11.0,-6.0,1.0,0.0,0.0,0.0,0.0,0.0,0.0,0.0,0.0,0
27.0,5.0,22.0,21.0,0.0,-4.0,-5.0,8.0,0.0,0.0,0.0,0.0,0.0,0.0,0.0,0.0,0
4.0,12.0,40.0,26.0,11.0,-2.0,0.0,5.0,0.0,0.0,0.0,0.0,0.0,0.0,0.0,0.0,0
-24.0,23.0,42.0,19.0,11.0,-3.0,11.0,-5.0,0.0,0.0,0.0,0.0,0.0,0.0,0.0,0.0,0
-30.0,25.0,28.0,-3.0,-1.0,5.0,15.0,-14.0,0.0,0.0,0.0,0.0,0.0,0.0,0.0,0.0,0
-36.0,16.0,7.0,-26.0,-5.0,11.0,19.0,-18.0,0.0,0.0,0.0,0.0,0.0,0.0,0.0,0.0,0
-28.0,15.0,2.0,-23.0,-4.0,6.0,17.0,-14.0,0.0,0.0,0.0,0.0,0.0,0.0,0.0,0.0,0
-19.0,-14.0,-27.0,-28.0,-6.0,-2.0,4.0,-13.0,0.0,0.0,0.0,0.0,0.0,0.0,0.0,0.0,0
-25.0,-51.0,-32.0,-25.0,-11.0,-2.0,6.0,-3.0,0.0,0.0,0.0,0.0,0.0,0.0,0.0,0.0,0
-38.0,-53.0,-17.0,-5.0,-10.0,2.0,9.0,0.0,0.0,0.0,0.0,0.0,0.0,0.0,0.0,0.0,0
-26.0,-37.0,-10.0,2.0,2.0,-1.0,2.0,6.0,0.0,0.0,0.0,0.0,0.0,0.0,0.0,0.0,0
-4.0,-14.0,-13.0,3.0,-1.0,-1.0,-6.0,2.0,0.0,0.0,0.0,0.0,0.0,0.0,0.0,0.0,0
14.0,38.0,4.0,6.0,-4.0,0.0,-6.0,-7.0,0.0,0.0,0.0,0.0,0.0,0.0,0.0,0.0,0
15.0,63.0,18.0,9.0,5.0,1.0,-9.0,-2.0,0.0,0.0,0.0,0.0,0.0,0.0,0.0,0.0,0
27.0,47.0,18.0,17.0,6.0,-2.0,-6.0,-2.0,0.0,0.0,0.0,0.0,0.0,0.0,0.0,0.0,0
40.0,28.0,15.0,15.0,1.0,-4.0,-19.0,1.0,0.0,0.0,0.0,0.0,0.0,0.0,0.0,0.0,0
32.0,-3.0,2.0,3.0,2.0,-3.0,-14.0,3.0,0.0,0.0,0.0,0.0,0.0,0.0,0.0,0.0,0
34.0,-30.0,-18.0,-3.0,-6.0,-9.0,-18.0,1.0,0.0,0.0,0.0,0.0,0.0,0.0,0.0,0.0,0
43.0,-30.0,-35.0,-17.0,-15.0,-15.0,-24.0,4.0,0.0,0.0,0.0,0.0,0.0,0.0,0.0,0.0,0
19.0,-16.0,-38.0,-17.0,-16.0,-14.0,-18.0,3.0,0.0,0.0,0.0,0.0,0.0,0.0,0.0,0.0,0
-8.0,-14.0,-26.0,-15.0,-12.0,-14.0,-10.0,1.0,0.0,0.0,0.0,0.0,0.0,0.0,0.0,0.0,0
-29.0,-45.0,-24.0,-11.0,-4.0,-10.0,-3.0,-2.0,0.0,0.0,0.0,0.0,0.0,0.0,0.0,0.0,0
-57.0,-35.0,-1.0,11.0,4.0,-2.0,10.0,-2.0,0.0,0.0,0.0,0.0,0.0,0.0,0.0,0.0,0
-68.0,-11.0,22.0,9.0,4.0,1.0,14.0,-8.0,0.0,0.0,0.0,0.0,0.0,0.0,0.0,0.0,0
-51.0,-1.0,20.0,-2.0,1.0,2.0,15.0,-8.0,0.0,0.0,0.0,0.0,0.0,0.0,0.0,0.0,0
-24.0,18.0,25.0,-1.0,6.0,8.0,22.0,-6.0,0.0,0.0,0.0,0.0,0.0,0.0,0.0,0.0,0
15.0,35.0,30.0,3.0,3.0,8.0,18.0,-4.0,0.0,0.0,0.0,0.0,0.0,0.0,0.0,0.0,0
32.0,28.0,14.0,-1.0,1.0,12.0,-2.0,-6.0,0.0,0.0,0.0,0.0,0.0,0.0,0.0,0.0,0
23.0,18.0,1.0,-2.0,0.0,12.0,-1.0,-8.0,0.0,0.0,0.0,0.0,0.0,0.0,0.0,0.0,0
-9.0,8.0,-1.0,-7.0,-1.0,0.0,4.0,-5.0,0.0,0.0,0.0,0.0,0.0,0.0,0.0,0.0,0
-26.0,-6.0,-8.0,-15.0,-4.0,-15.0,-2.0,-13.0,0.0,0.0,0.0,0.0,0.0,0.0,0.0,0.0,0
-28.0,-11.0,-17.0,-28.0,-12.0,-14.0,-14.0,-9.0,0.0,0.0,0.0,0.0,0.0,0.0,0.0,0.0,0
1.0,-12.0,-15.0,-12.0,-15.0,-4.0,-9.0,-3.0,0.0,0.0,0.0,0.0,0.0,0.0,0.0,0.0,0
27.0,-1.0,-8.0,3.0,-5.0,5.0,-1.0,10.0,0.0,0.0,0.0,0.0,0.0,0.0,0.0,0.0,0
22.0,3.0,-23.0,2.0,-2.0,4.0,-6.0,0.0,0.0,0.0,0.0,0.0,0.0,0.0,0.0,0.0,0
14.0,-9.0,-23.0,0.0,4.0,-8.0,-15.0,-2.0,0.0,0.0,0.0,0.0,0.0,0.0,0.0,0.0,0
2.0,-3.0,-2.0,-1.0,0.0,-7.0,-15.0,2.0,0.0,0.0,0.0,0.0,0.0,0.0,0.0,0.0,0
-7.0,-2.0,9.0,10.0,-1.0,-8.0,-13.0,11.0,0.0,0.0,0.0,0.0,0.0,0.0,0.0,0.0,0
12.0,-12.0,1.0,8.0,-5.0,-8.0,-22.0,13.0,0.0,0.0,0.0,0.0,0.0,0.0,0.0,0.0,0
22.0,-22.0,-6.0,5.0,3.0,-12.0,-14.0,8.0,0.0,0.0,0.0,0.0,0.0,0.0,0.0,0.0,0
31.0,-18.0,-5.0,6.0,6.0,-10.0,-11.0,-4.0,0.0,0.0,0.0,0.0,0.0,0.0,0.0,0.0,0
15.0,-18.0,-6.0,7.0,6.0,-10.0,-10.0,-2.0,0.0,0.0,0.0,0.0,0.0,0.0,0.0,0.0,0
-9.0,-6.0,-3.0,0.0,4.0,-5.0,6.0,-10.0,0.0,0.0,0.0,0.0,0.0,0.0,0.0,0.0,0
-31.0,-8.0,-6.0,-11.0,-13.0,1.0,16.0,-9.0,0.0,0.0,0.0,0.0,0.0,0.0,0.0,0.0,0
-39.0,11.0,-6.0,-16.0,-16.0,3.0,13.0,-8.0,0.0,0.0,0.0,0.0,0.0,0.0,0.0,0.0,0
-68.0,-1.0,-5.0,-20.0,-20.0,6.0,25.0,-18.0,0.0,0.0,0.0,0.0,0.0,0.0,0.0,0.0,0
-79.0,-10.0,2.0,-15.0,-9.0,7.0,12.0,-14.0,0.0,0.0,0.0,0.0,0.0,0.0,0.0,0.0,0
-58.0,13.0,31.0,1.0,-1.0,3.0,-2.0,-8.0,0.0,0.0,0.0,0.0,0.0,0.0,0.0,0.0,0
18.0,29.0,23.0,-5.0,1.0,4.0,3.0,-10.0,0.0,0.0,0.0,0.0,0.0,0.0,0.0,0.0,0
111.0,61.0,26.0,7.0,11.0,8.0,7.0,-2.0,0.0,0.0,0.0,0.0,0.0,0.0,0.0,0.0,0
93.0,45.0,13.0,7.0,11.0,2.0,6.0,2.0,0.0,0.0,0.0,0.0,0.0,0.0,0.0,0.0,0
9.0,-29.0,-12.0,-8.0,-1.0,-5.0,0.0,3.0,0.0,0.0,0.0,0.0,0.0,0.0,0.0,0.0,0
-46.0,-72.0,-28.0,-23.0,-10.0,-8.0,-8.0,-4.0,0.0,0.0,0.0,0.0,0.0,0.0,0.0,0.0,0
-39.0,-43.0,-39.0,-16.0,-6.0,-8.0,-10.0,-2.0,0.0,0.0,0.0,0.0,0.0,0.0,0.0,0.0,0
-30.0,-5.0,-22.0,0.0,-8.0,-8.0,-15.0,-1.0,0.0,0.0,0.0,0.0,0.0,0.0,0.0,0.0,0
-20.0,6.0,-12.0,5.0,5.0,-9.0,-18.0,-2.0,0.0,0.0,0.0,0.0,0.0,0.0,0.0,0.0,0
9.0,15.0,-7.0,14.0,3.0,-9.0,-14.0,3.0,0.0,0.0,0.0,0.0,0.0,0.0,0.0,0.0,0
24.0,8.0,4.0,15.0,-1.0,-4.0,-17.0,7.0,0.0,0.0,0.0,0.0,0.0,0.0,0.0,0.0,0
21.0,-28.0,-9.0,7.0,-4.0,4.0,-20.0,11.0,0.0,0.0,0.0,0.0,0.0,0.0,0.0,0.0,0
17.0,-41.0,-14.0,-10.0,-14.0,-10.0,-20.0,5.0,0.0,0.0,0.0,0.0,0.0,0.0,0.0,0.0,0
15.0,-4.0,-7.0,-11.0,-13.0,-15.0,-13.0,-9.0,0.0,0.0,0.0,0.0,0.0,0.0,0.0,0.0,0
23.0,15.0,-6.0,-9.0,-9.0,-9.0,-8.0,-4.0,0.0,0.0,0.0,0.0,0.0,0.0,0.0,0.0,0
15.0,13.0,5.0,6.0,-3.0,-8.0,13.0,-2.0,0.0,0.0,0.0,0.0,0.0,0.0,0.0,0.0,0
-12.0,1.0,9.0,3.0,2.0,3.0,22.0,-1.0,0.0,0.0,0.0,0.0,0.0,0.0,0.0,0.0,0
-38.0,-3.0,9.0,1.0,10.0,7.0,18.0,-6.0,0.0,0.0,0.0,0.0,0.0,0.0,0.0,0.0,0
-56.0,-5.0,12.0,0.0,9.0,15.0,17.0,-14.0,0.0,0.0,0.0,0.0,0.0,0.0,0.0,0.0,0
-32.0,8.0,5.0,-12.0,0.0,8.0,19.0,-13.0,0.0,0.0,0.0,0.0,0.0,0.0,0.0,0.0,0
3.0,8.0,-6.0,-10.0,-2.0,0.0,4.0,-8.0,0.0,0.0,0.0,0.0,0.0,0.0,0.0,0.0,0
-3.0,5.0,-3.0,-2.0,-7.0,0.0,-2.0,-1.0,0.0,0.0,0.0,0.0,0.0,0.0,0.0,0.0,0
-10.0,20.0,11.0,5.0,-3.0,2.0,0.0,-10.0,0.0,0.0,0.0,0.0,0.0,0.0,0.0,0.0,0
8.0,19.0,28.0,11.0,-3.0,0.0,1.0,-7.0,0.0,0.0,0.0,0.0,0.0,0.0,0.0,0.0,0
2.0,11.0,23.0,16.0,2.0,-5.0,-7.0,-1.0,0.0,0.0,0.0,0.0,0.0,0.0,0.0,0.0,0
-12.0,5.0,-1.0,10.0,9.0,-4.0,-12.0,-5.0,0.0,0.0,0.0,0.0,0.0,0.0,0.0,0.0,0
-16.0,-40.0,-13.0,1.0,-1.0,4.0,-3.0,-2.0,0.0,0.0,0.0,0.0,0.0,0.0,0.0,0.0,0
-24.0,-66.0,-26.0,-9.0,-9.0,-2.0,1.0,5.0,0.0,0.0,0.0,0.0,0.0,0.0,0.0,0.0,0
4.0,-32.0,-26.0,-18.0,-7.0,-11.0,-18.0,7.0,0.0,0.0,0.0,0.0,0.0,0.0,0.0,0.0,0
40.0,22.0,-23.0,-23.0,-5.0,-11.0,-20.0,8.0,0.0,0.0,0.0,0.0,0.0,0.0,0.0,0.0,0
60.0,54.0,-17.0,-24.0,-7.0,-11.0,-15.0,6.0,0.0,0.0,0.0,0.0,0.0,0.0,0.0,0.0,0
53.0,15.0,-16.0,-13.0,-3.0,-8.0,-24.0,8.0,0.0,0.0,0.0,0.0,0.0,0.0,0.0,0.0,0
9.0,-38.0,-24.0,-8.0,-5.0,-5.0,-22.0,1.0,0.0,0.0,0.0,0.0,0.0,0.0,0.0,0.0,0
-16.0,-42.0,-24.0,-9.0,-3.0,-5.0,-15.0,-7.0,0.0,0.0,0.0,0.0,0.0,0.0,0.0,0.0,0
-22.0,-30.0,-13.0,-7.0,-11.0,-4.0,-8.0,-8.0,0.0,0.0,0.0,0.0,0.0,0.0,0.0,0.0,0
-20.0,-14.0,0.0,-5.0,-7.0,-10.0,4.0,-5.0,0.0,0.0,0.0,0.0,0.0,0.0,0.0,0.0,0
-22.0,-1.0,-7.0,-9.0,-12.0,-9.0,11.0,-7.0,0.0,0.0,0.0,0.0,0.0,0.0,0.0,0.0,0
-27.0,9.0,1.0,5.0,7.0,-2.0,17.0,-9.0,0.0,0.0,0.0,0.0,0.0,0.0,0.0,0.0,0
-22.0,50.0,38.0,27.0,13.0,10.0,21.0,-8.0,0.0,0.0,0.0,0.0,0.0,0.0,0.0,0.0,0
-2.0,50.0,49.0,30.0,8.0,18.0,20.0,-6.0,0.0,0.0,0.0,0.0,0.0,0.0,0.0,0.0,0
-15.0,2.0,39.0,25.0,5.0,15.0,15.0,-6.0,0.0,0.0,0.0,0.0,0.0,0.0,0.0,0.0,0
-13.0,-8.0,23.0,22.0,3.0,8.0,7.0,-6.0,0.0,0.0,0.0,0.0,0.0,0.0,0.0,0.0,0
-13.0,0.0,13.0,7.0,5.0,-5.0,2.0,-3.0,0.0,0.0,0.0,0.0,0.0,0.0,0.0,0.0,0
-11.0,-10.0,1.0,-11.0,-8.0,-1.0,-5.0,-8.0,0.0,0.0,0.0,0.0,0.0,0.0,0.0,0.0,0
5.0,-12.0,-9.0,-19.0,-7.0,-3.0,-10.0,-4.0,0.0,0.0,0.0,0.0,0.0,0.0,0.0,0.0,0
10.0,-3.0,-16.0,-27.0,-6.0,-2.0,-5.0,-4.0,0.0,0.0,0.0,0.0,0.0,0.0,0.0,0.0,0
-7.0,-6.0,-35.0,-35.0,-15.0,-6.0,-4.0,0.0,0.0,0.0,0.0,0.0,0.0,0.0,0.0,0.0,0
2.0,-8.0,-34.0,-25.0,-13.0,-11.0,-11.0,5.0,0.0,0.0,0.0,0.0,0.0,0.0,0.0,0.0,0
13.0,-21.0,-30.0,-17.0,-3.0,-13.0,-14.0,9.0,0.0,0.0,0.0,0.0,0.0,0.0,0.0,0.0,0
17.0,-23.0,-32.0,-7.0,-5.0,-5.0,-13.0,4.0,0.0,0.0,0.0,0.0,0.0,0.0,0.0,0.0,0
34.0,3.0,-22.0,2.0,-2.0,-4.0,-17.0,-7.0,0.0,0.0,0.0,0.0,0.0,0.0,0.0,0.0,0
39.0,7.0,-17.0,4.0,1.0,-9.0,-24.0,2.0,0.0,0.0,0.0,0.0,0.0,0.0,0.0,0.0,0
27.0,-9.0,-5.0,14.0,0.0,-11.0,-17.0,6.0,0.0,0.0,0.0,0.0,0.0,0.0,0.0,0.0,0
8.0,-20.0,2.0,15.0,-3.0,-10.0,-10.0,-4.0,0.0,0.0,0.0,0.0,0.0,0.0,0.0,0.0,0
-11.0,-2.0,18.0,14.0,-3.0,-10.0,-6.0,-1.0,0.0,0.0,0.0,0.0,0.0,0.0,0.0,0.0,0
-20.0,41.0,37.0,17.0,-1.0,-1.0,4.0,-5.0,0.0,0.0,0.0,0.0,0.0,0.0,0.0,0.0,0
-50.0,35.0,25.0,4.0,-7.0,2.0,13.0,-8.0,0.0,0.0,0.0,0.0,0.0,0.0,0.0,0.0,0
-62.0,-10.0,13.0,-5.0,-9.0,9.0,17.0,-7.0,0.0,0.0,0.0,0.0,0.0,0.0,0.0,0.0,0
-43.0,-27.0,9.0,-9.0,1.0,8.0,20.0,-10.0,0.0,0.0,0.0,0.0,0.0,0.0,0.0,0.0,0
-13.0,-30.0,7.0,-12.0,1.0,0.0,22.0,-9.0,0.0,0.0,0.0,0.0,0.0,0.0,0.0,0.0,0
18.0,-21.0,-7.0,-10.0,1.0,2.0,12.0,-1.0,0.0,0.0,0.0,0.0,0.0,0.0,0.0,0.0,0
13.0,-19.0,-9.0,-5.0,10.0,8.0,8.0,1.0,0.0,0.0,0.0,0.0,0.0,0.0,0.0,0.0,0
2.0,1.0,5.0,4.0,9.0,4.0,0.0,-3.0,0.0,0.0,0.0,0.0,0.0,0.0,0.0,0.0,0
10.0,29.0,-5.0,-5.0,3.0,3.0,-7.0,-10.0,0.0,0.0,0.0,0.0,0.0,0.0,0.0,0.0,0
6.0,38.0,-6.0,-5.0,-2.0,-6.0,-9.0,-7.0,0.0,0.0,0.0,0.0,0.0,0.0,0.0,0.0,0
-13.0,20.0,-10.0,-9.0,-5.0,-7.0,-12.0,-3.0,0.0,0.0,0.0,0.0,0.0,0.0,0.0,0.0,0
-14.0,17.0,-7.0,-10.0,-14.0,-6.0,-13.0,-5.0,0.0,0.0,0.0,0.0,0.0,0.0,0.0,0.0,0
-12.0,9.0,-10.0,-7.0,-19.0,-7.0,-12.0,-2.0,0.0,0.0,0.0,0.0,0.0,0.0,0.0,0.0,0
2.0,-16.0,-11.0,-3.0,-15.0,-4.0,-11.0,3.0,0.0,0.0,0.0,0.0,0.0,0.0,0.0,0.0,0
-2.0,-46.0,-14.0,-2.0,-7.0,-5.0,-10.0,6.0,0.0,0.0,0.0,0.0,0.0,0.0,0.0,0.0,0
4.0,-48.0,-10.0,2.0,-9.0,-18.0,-12.0,6.0,0.0,0.0,0.0,0.0,0.0,0.0,0.0,0.0,0
46.0,-11.0,-7.0,9.0,-7.0,-16.0,-22.0,10.0,0.0,0.0,0.0,0.0,0.0,0.0,0.0,0.0,0
41.0,-5.0,-9.0,-1.0,-5.0,-17.0,-18.0,5.0,0.0,0.0,0.0,0.0,0.0,0.0,0.0,0.0,0
8.0,-19.0,-10.0,-10.0,1.0,-10.0,-12.0,-3.0,0.0,0.0,0.0,0.0,0.0,0.0,0.0,0.0,0
-3.0,-6.0,-12.0,-2.0,3.0,-2.0,-5.0,-9.0,0.0,0.0,0.0,0.0,0.0,0.0,0.0,0.0,0
27.0,26.0,5.0,10.0,14.0,7.0,10.0,-2.0,0.0,0.0,0.0,0.0,0.0,0.0,0.0,0.0,0
14.0,24.0,15.0,2.0,14.0,3.0,12.0,-7.0,0.0,0.0,0.0,0.0,0.0,0.0,0.0,0.0,0
-23.0,1.0,13.0,5.0,3.0,-2.0,11.0,-6.0,0.0,0.0,0.0,0.0,0.0,0.0,0.0,0.0,0
-62.0,-14.0,6.0,-4.0,-7.0,4.0,21.0,-6.0,0.0,0.0,0.0,0.0,0.0,0.0,0.0,0.0,0
-54.0,11.0,-4.0,-19.0,-14.0,2.0,20.0,-12.0,0.0,0.0,0.0,0.0,0.0,0.0,0.0,0.0,0
-13.0,36.0,-11.0,-20.0,-23.0,-4.0,-1.0,-9.0,0.0,0.0,0.0,0.0,0.0,0.0,0.0,0.0,0
10.0,30.0,0.0,-4.0,-4.0,0.0,-2.0,-5.0,0.0,0.0,0.0,0.0,0.0,0.0,0.0,0.0,0
-19.0,-7.0,8.0,9.0,7.0,10.0,8.0,-8.0,0.0,0.0,0.0,0.0,0.0,0.0,0.0,0.0,0
-40.0,-25.0,20.0,22.0,9.0,10.0,9.0,-5.0,0.0,0.0,0.0,0.0,0.0,0.0,0.0,0.0,0
-32.0,-34.0,16.0,16.0,9.0,4.0,-2.0,0.0,0.0,0.0,0.0,0.0,0.0,0.0,0.0,0.0,0
-14.0,-37.0,9.0,10.0,1.0,-4.0,-6.0,-4.0,0.0,0.0,0.0,0.0,0.0,0.0,0.0,0.0,0
2.0,-27.0,2.0,-1.0,-7.0,-6.0,-15.0,-5.0,0.0,0.0,0.0,0.0,0.0,0.0,0.0,0.0,0
24.0,-17.0,-19.0,-10.0,-15.0,-12.0,-15.0,5.0,0.0,0.0,0.0,0.0,0.0,0.0,0.0,0.0,0
54.0,6.0,-21.0,-10.0,-11.0,-21.0,-22.0,9.0,0.0,0.0,0.0,0.0,0.0,0.0,0.0,0.0,0
48.0,22.0,-9.0,-12.0,-1.0,-11.0,-15.0,6.0,0.0,0.0,0.0,0.0,0.0,0.0,0.0,0.0,0
25.0,13.0,-13.0,-14.0,1.0,1.0,-13.0,6.0,0.0,0.0,0.0,0.0,0.0,0.0,0.0,0.0,0
15.0,5.0,-37.0,-32.0,-6.0,-1.0,-16.0,2.0,0.0,0.0,0.0,0.0,0.0,0.0,0.0,0.0,0
16.0,3.0,-39.0,-43.0,-10.0,-9.0,-16.0,-3.0,0.0,0.0,0.0,0.0,0.0,0.0,0.0,0.0,0
3.0,2.0,-38.0,-27.0,-12.0,-14.0,-15.0,-8.0,0.0,0.0,0.0,0.0,0.0,0.0,0.0,0.0,0
-11.0,-9.0,-37.0,-9.0,-7.0,-10.0,-8.0,0.0,0.0,0.0,0.0,0.0,0.0,0.0,0.0,0.0,0
-34.0,-25.0,-8.0,4.0,1.0,-4.0,0.0,-3.0,0.0,0.0,0.0,0.0,0.0,0.0,0.0,0.0,0
-30.0,-13.0,28.0,32.0,11.0,2.0,13.0,-5.0,0.0,0.0,0.0,0.0,0.0,0.0,0.0,0.0,0
-14.0,0.0,39.0,44.0,12.0,6.0,23.0,-6.0,0.0,0.0,0.0,0.0,0.0,0.0,0.0,0.0,0
-13.0,15.0,49.0,45.0,9.0,10.0,25.0,-9.0,0.0,0.0,0.0,0.0,0.0,0.0,0.0,0.0,0
-27.0,6.0,45.0,35.0,6.0,10.0,16.0,-9.0,0.0,0.0,0.0,0.0,0.0,0.0,0.0,0.0,0
-29.0,-7.0,34.0,17.0,8.0,5.0,15.0,-3.0,0.0,0.0,0.0,0.0,0.0,0.0,0.0,0.0,0
-23.0,-1.0,18.0,0.0,-1.0,3.0,8.0,-4.0,0.0,0.0,0.0,0.0,0.0,0.0,0.0,0.0,0
-12.0,1.0,5.0,-13.0,-4.0,-1.0,2.0,-14.0,0.0,0.0,0.0,0.0,0.0,0.0,0.0,0.0,0
6.0,-4.0,-14.0,-34.0,-12.0,-7.0,-8.0,-14.0,0.0,0.0,0.0,0.0,0.0,0.0,0.0,0.0,0
10.0,-16.0,-35.0,-37.0,-11.0,-4.0,-7.0,-7.0,0.0,0.0,0.0,0.0,0.0,0.0,0.0,0.0,0
-15.0,-28.0,-29.0,-31.0,-9.0,-2.0,-2.0,1.0,0.0,0.0,0.0,0.0,0.0,0.0,0.0,0.0,0
3.0,-10.0,-19.0,-26.0,-6.0,-6.0,-7.0,9.0,0.0,0.0,0.0,0.0,0.0,0.0,0.0,0.0,0
32.0,31.0,-20.0,-20.0,-9.0,-7.0,-8.0,8.0,0.0,0.0,0.0,0.0,0.0,0.0,0.0,0.0,0
40.0,40.0,-28.0,-14.0,-6.0,-9.0,-24.0,6.0,0.0,0.0,0.0,0.0,0.0,0.0,0.0,0.0,0
24.0,54.0,-20.0,1.0,-3.0,-9.0,-26.0,1.0,0.0,0.0,0.0,0.0,0.0,0.0,0.0,0.0,0
18.0,49.0,-8.0,7.0,-6.0,-13.0,-18.0,1.0,0.0,0.0,0.0,0.0,0.0,0.0,0.0,0.0,0
16.0,3.0,-4.0,17.0,-2.0,-13.0,-19.0,3.0,0.0,0.0,0.0,0.0,0.0,0.0,0.0,0.0,0
-4.0,-61.0,-1.0,20.0,-3.0,-10.0,-13.0,-5.0,0.0,0.0,0.0,0.0,0.0,0.0,0.0,0.0,0
-18.0,-110.0,0.0,14.0,-5.0,-11.0,-6.0,-5.0,0.0,0.0,0.0,0.0,0.0,0.0,0.0,0.0,0
-29.0,-112.0,-2.0,8.0,-1.0,-6.0,-3.0,5.0,0.0,0.0,0.0,0.0,0.0,0.0,0.0,0.0,0
-44.0,-63.0,4.0,9.0,4.0,-2.0,11.0,6.0,0.0,0.0,0.0,0.0,0.0,0.0,0.0,0.0,0
-40.0,-22.0,7.0,5.0,7.0,10.0,17.0,-1.0,0.0,0.0,0.0,0.0,0.0,0.0,0.0,0.0,0
-8.0,51.0,9.0,-11.0,0.0,14.0,18.0,-9.0,0.0,0.0,0.0,0.0,0.0,0.0,0.0,0.0,0
12.0,109.0,14.0,-14.0,-2.0,3.0,16.0,-13.0,0.0,0.0,0.0,0.0,0.0,0.0,0.0,0.0,0
-3.0,109.0,11.0,-12.0,-1.0,2.0,9.0,-17.0,0.0,0.0,0.0,0.0,0.0,0.0,0.0,0.0,0
24.0,69.0,8.0,-13.0,-4.0,2.0,1.0,-14.0,0.0,0.0,0.0,0.0,0.0,0.0,0.0,0.0,0
36.0,24.0,10.0,-5.0,-3.0,0.0,6.0,-11.0,0.0,0.0,0.0,0.0,0.0,0.0,0.0,0.0,0
4.0,-44.0,14.0,4.0,0.0,2.0,6.0,-8.0,0.0,0.0,0.0,0.0,0.0,0.0,0.0,0.0,0
-25.0,-59.0,2.0,1.0,-3.0,-3.0,-1.0,-1.0,0.0,0.0,0.0,0.0,0.0,0.0,0.0,0.0,0
-27.0,-56.0,-11.0,-2.0,-5.0,4.0,-4.0,6.0,0.0,0.0,0.0,0.0,0.0,0.0,0.0,0.0,0
-31.0,-42.0,-12.0,-4.0,-4.0,-4.0,0.0,4.0,0.0,0.0,0.0,0.0,0.0,0.0,0.0,0.0,0
-21.0,-21.0,-10.0,-3.0,-2.0,-12.0,-6.0,0.0,0.0,0.0,0.0,0.0,0.0,0.0,0.0,0.0,0
-6.0,1.0,-15.0,-10.0,-4.0,-11.0,-10.0,-1.0,0.0,0.0,0.0,0.0,0.0,0.0,0.0,0.0,0
8.0,-9.0,-25.0,-9.0,-5.0,-12.0,-21.0,-2.0,0.0,0.0,0.0,0.0,0.0,0.0,0.0,0.0,0
19.0,15.0,-7.0,6.0,-1.0,-3.0,-18.0,-2.0,0.0,0.0,0.0,0.0,0.0,0.0,0.0,0.0,0
32.0,30.0,-9.0,-1.0,-2.0,-6.0,-24.0,1.0,0.0,0.0,0.0,0.0,0.0,0.0,0.0,0.0,0
48.0,20.0,-23.0,-13.0,-9.0,-15.0,-18.0,7.0,0.0,0.0,0.0,0.0,0.0,0.0,0.0,0.0,0
39.0,16.0,-16.0,-4.0,-2.0,-12.0,-16.0,1.0,0.0,0.0,0.0,0.0,0.0,0.0,0.0,0.0,0
5.0,-14.0,-5.0,8.0,3.0,-6.0,-12.0,4.0,0.0,0.0,0.0,0.0,0.0,0.0,0.0,0.0,0
-10.0,-31.0,7.0,11.0,-4.0,-2.0,-7.0,9.0,0.0,0.0,0.0,0.0,0.0,0.0,0.0,0.0,0
-26.0,-23.0,16.0,15.0,4.0,1.0,10.0,1.0,0.0,0.0,0.0,0.0,0.0,0.0,0.0,0.0,1
-41.0,-18.0,17.0,13.0,0.0,0.0,15.0,-10.0,0.0,0.0,0.0,0.0,0.0,0.0,0.0,0.0,1
-41.0,-5.0,11.0,0.0,-10.0,3.0,11.0,-17.0,0.0,0.0,0.0,0.0,0.0,0.0,0.0,0.0,1
-28.0,-9.0,4.0,-15.0,-6.0,1.0,18.0,-13.0,0.0,0.0,0.0,0.0,0.0,0.0,0.0,0.0,1
-12.0,-12.0,-4.0,-17.0,0.0,4.0,11.0,-10.0,0.0,0.0,0.0,0.0,0.0,0.0,0.0,0.0,1
2.0,7.0,-15.0,-19.0,-9.0,6.0,2.0,-6.0,0.0,0.0,0.0,0.0,0.0,0.0,0.0,0.0,1
-7.0,7.0,-12.0,-17.0,-4.0,-3.0,5.0,-6.0,0.0,0.0,0.0,0.0,0.0,0.0,0.0,0.0,1
-27.0,2.0,7.0,-8.0,10.0,8.0,7.0,-8.0,0.0,0.0,0.0,0.0,0.0,0.0,0.0,0.0,1
-27.0,9.0,20.0,-3.0,10.0,7.0,1.0,-6.0,0.0,0.0,0.0,0.0,0.0,0.0,0.0,0.0,1
7.0,17.0,9.0,-6.0,-12.0,-1.0,-9.0,0.0,0.0,0.0,0.0,0.0,0.0,0.0,0.0,0.0,1
40.0,21.0,-1.0,-2.0,-13.0,-6.0,2.0,5.0,0.0,0.0,0.0,0.0,0.0,0.0,0.0,0.0,1
25.0,37.0,6.0,5.0,-1.0,-11.0,0.0,3.0,0.0,0.0,0.0,0.0,0.0,0.0,0.0,0.0,1
6.0,34.0,4.0,11.0,0.0,-6.0,-10.0,3.0,0.0,0.0,0.0,0.0,0.0,0.0,0.0,0.0,1
9.0,-9.0,-15.0,5.0,9.0,-6.0,-20.0,3.0,0.0,0.0,0.0,0.0,0.0,0.0,0.0,0.0,1
5.0,-37.0,-27.0,8.0,14.0,-4.0,-22.0,3.0,0.0,0.0,0.0,0.0,0.0,0.0,0.0,0.0,1
2.0,-51.0,-39.0,-4.0,2.0,-6.0,-21.0,5.0,0.0,0.0,0.0,0.0,0.0,0.0,0.0,0.0,1
3.0,-49.0,-44.0,-13.0,-15.0,-10.0,-25.0,4.0,0.0,0.0,0.0,0.0,0.0,0.0,0.0,0.0,1
6.0,-54.0,-33.0,-16.0,-12.0,-15.0,-14.0,-1.0,0.0,0.0,0.0,0.0,0.0,0.0,0.0,0.0,1
10.0,-45.0,-13.0,-10.0,-5.0,-14.0,-8.0,1.0,0.0,0.0,0.0,0.0,0.0,0.0,0.0,0.0,1
15.0,2.0,23.0,11.0,-3.0,-4.0,0.0,2.0,0.0,0.0,0.0,0.0,0.0,0.0,0.0,0.0,1
-1.0,41.0,43.0,21.0,0.0,-3.0,13.0,1.0,0.0,0.0,0.0,0.0,0.0,0.0,0.0,0.0,1
-11.0,49.0,42.0,11.0,-3.0,-1.0,18.0,-2.0,0.0,0.0,0.0,0.0,0.0,0.0,0.0,0.0,1
-18.0,30.0,21.0,1.0,-3.0,5.0,14.0,-13.0,0.0,0.0,0.0,0.0,0.0,0.0,0.0,0.0,1
-28.0,40.0,23.0,1.0,3.0,13.0,19.0,-13.0,0.0,0.0,0.0,0.0,0.0,0.0,0.0,0.0,1
-41.0,19.0,10.0,-3.0,8.0,13.0,13.0,-7.0,0.0,0.0,0.0,0.0,0.0,0.0,0.0,0.0,1
-22.0,1.0,-22.0,-23.0,-5.0,-1.0,-2.0,-9.0,0.0,0.0,0.0,0.0,0.0,0.0,0.0,0.0,1
-2.0,-6.0,-24.0,-26.0,-12.0,-8.0,3.0,-12.0,0.0,0.0,0.0,0.0,0.0,0.0,0.0,0.0,1
6.0,-18.0,-6.0,2.0,-5.0,3.0,7.0,-5.0,0.0,0.0,0.0,0.0,0.0,0.0,0.0,0.0,1
10.0,-12.0,-12.0,2.0,-3.0,3.0,1.0,1.0,0.0,0.0,0.0,0.0,0.0,0.0,0.0,0.0,1
-5.0,-15.0,-23.0,-14.0,-5.0,1.0,-3.0,-4.0,0.0,0.0,0.0,0.0,0.0,0.0,0.0,0.0,1
-38.0,-57.0,-24.0,-19.0,-6.0,-6.0,-6.0,-3.0,0.0,0.0,0.0,0.0,0.0,0.0,0.0,0.0,1
-68.0,-79.0,-10.0,-12.0,2.0,-5.0,-7.0,-5.0,0.0,0.0,0.0,0.0,0.0,0.0,0.0,0.0,1
-51.0,-53.0,-6.0,-14.0,-7.0,-11.0,-14.0,-2.0,0.0,0.0,0.0,0.0,0.0,0.0,0.0,0.0,1
26.0,8.0,-17.0,-9.0,0.0,-16.0,-27.0,0.0,0.0,0.0,0.0,0.0,0.0,0.0,0.0,0.0,1
79.0,52.0,2.0,15.0,4.0,-6.0,-16.0,9.0,0.0,0.0,0.0,0.0,0.0,0.0,0.0,0.0,1
89.0,91.0,29.0,31.0,7.0,0.0,-8.0,15.0,0.0,0.0,0.0,0.0,0.0,0.0,0.0,0.0,1
101.0,90.0,25.0,17.0,3.0,-2.0,-12.0,12.0,0.0,0.0,0.0,0.0,0.0,0.0,0.0,0.0,1
63.0,44.0,8.0,5.0,-3.0,-2.0,-13.0,0.0,0.0,0.0,0.0,0.0,0.0,0.0,0.0,0.0,1
12.0,-2.0,-8.0,-3.0,-11.0,-6.0,-12.0,-7.0,0.0,0.0,0.0,0.0,0.0,0.0,0.0,0.0,1
-31.0,-49.0,-21.0,-7.0,-17.0,-7.0,-5.0,-3.0,0.0,0.0,0.0,0.0,0.0,0.0,0.0,0.0,1
-74.0,-80.0,-20.0,-2.0,-4.0,1.0,7.0,-1.0,0.0,0.0,0.0,0.0,0.0,0.0,0.0,0.0,1
-98.0,-91.0,-14.0,-14.0,-2.0,-8.0,14.0,-7.0,0.0,0.0,0.0,0.0,0.0,0.0,0.0,0.0,1
-75.0,-65.0,-11.0,-14.0,0.0,0.0,10.0,-14.0,0.0,0.0,0.0,0.0,0.0,0.0,0.0,0.0,1
-47.0,-23.0,4.0,-5.0,3.0,5.0,13.0,-13.0,0.0,0.0,0.0,0.0,0.0,0.0,0.0,0.0,1
-12.0,32.0,8.0,11.0,0.0,5.0,13.0,-10.0,0.0,0.0,0.0,0.0,0.0,0.0,0.0,0.0,1
20.0,56.0,11.0,5.0,1.0,3.0,1.0,-2.0,0.0,0.0,0.0,0.0,0.0,0.0,0.0,0.0,1
19.0,44.0,7.0,-6.0,-3.0,3.0,5.0,-12.0,0.0,0.0,0.0,0.0,0.0,0.0,0.0,0.0,1
21.0,33.0,7.0,-9.0,-4.0,-3.0,7.0,-12.0,0.0,0.0,0.0,0.0,0.0,0.0,0.0,0.0,1
24.0,37.0,9.0,-20.0,-12.0,-1.0,-1.0,2.0,0.0,0.0,0.0,0.0,0.0,0.0,0.0,0.0,1
4.0,10.0,16.0,-2.0,-2.0,10.0,-5.0,4.0,0.0,0.0,0.0,0.0,0.0,0.0,0.0,0.0,1
-21.0,-22.0,17.0,2.0,4.0,12.0,2.0,7.0,0.0,0.0,0.0,0.0,0.0,0.0,0.0,0.0,1
-17.0,-26.0,6.0,-5.0,1.0,-8.0,3.0,1.0,0.0,0.0,0.0,0.0,0.0,0.0,0.0,0.0,1
-10.0,-33.0,-9.0,-8.0,-9.0,-17.0,-10.0,-2.0,0.0,0.0,0.0,0.0,0.0,0.0,0.0,0.0,1
11.0,-38.0,-28.0,-17.0,-9.0,-12.0,-25.0,-7.0,0.0,0.0,0.0,0.0,0.0,0.0,0.0,0.0,1
11.0,-30.0,-46.0,-20.0,-9.0,-12.0,-27.0,3.0,0.0,0.0,0.0,0.0,0.0,0.0,0.0,0.0,1
-8.0,-15.0,-52.0,-9.0,-9.0,-16.0,-20.0,7.0,0.0,0.0,0.0,0.0,0.0,0.0,0.0,0.0,1
21.0,37.0,-35.0,5.0,-9.0,-18.0,-18.0,8.0,0.0,0.0,0.0,0.0,0.0,0.0,0.0,0.0,1
61.0,67.0,-5.0,10.0,-3.0,-10.0,-9.0,4.0,0.0,0.0,0.0,0.0,0.0,0.0,0.0,0.0,1
16.0,13.0,3.0,10.0,-1.0,-5.0,-4.0,3.0,0.0,0.0,0.0,0.0,0.0,0.0,0.0,0.0,1
-6.0,-45.0,23.0,18.0,7.0,0.0,-5.0,6.0,0.0,0.0,0.0,0.0,0.0,0.0,0.0,0.0,1
14.0,-37.0,34.0,23.0,10.0,8.0,4.0,0.0,0.0,0.0,0.0,0.0,0.0,0.0,0.0,0.0,1
3.0,-4.0,30.0,8.0,-1.0,8.0,16.0,-13.0,0.0,0.0,0.0,0.0,0.0,0.0,0.0,0.0,1
-28.0,7.0,23.0,-9.0,-10.0,4.0,14.0,-9.0,0.0,0.0,0.0,0.0,0.0,0.0,0.0,0.0,1
-72.0,1.0,3.0,-19.0,-8.0,2.0,19.0,-15.0,0.0,0.0,0.0,0.0,0.0,0.0,0.0,0.0,1
-54.0,11.0,-15.0,-18.0,-5.0,4.0,16.0,-20.0,0.0,0.0,0.0,0.0,0.0,0.0,0.0,0.0,1
6.0,27.0,-22.0,-9.0,-5.0,-2.0,1.0,-10.0,0.0,0.0,0.0,0.0,0.0,0.0,0.0,0.0,1
4.0,9.0,-9.0,-2.0,0.0,-7.0,-3.0,-3.0,0.0,0.0,0.0,0.0,0.0,0.0,0.0,0.0,1
-14.0,-17.0,6.0,6.0,6.0,6.0,12.0,-2.0,0.0,0.0,0.0,0.0,0.0,0.0,0.0,0.0,1
-16.0,-10.0,10.0,5.0,6.0,11.0,5.0,-3.0,0.0,0.0,0.0,0.0,0.0,0.0,0.0,0.0,1
0.0,-13.0,0.0,2.0,4.0,1.0,-10.0,0.0,0.0,0.0,0.0,0.0,0.0,0.0,0.0,0.0,1
-12.0,-26.0,-4.0,-6.0,-4.0,1.0,-7.0,0.0,0.0,0.0,0.0,0.0,0.0,0.0,0.0,0.0,1
-22.0,-18.0,2.0,-13.0,-5.0,-6.0,-9.0,-4.0,0.0,0.0,0.0,0.0,0.0,0.0,0.0,0.0,1
5.0,3.0,-1.0,-15.0,-8.0,-6.0,-15.0,0.0,0.0,0.0,0.0,0.0,0.0,0.0,0.0,0.0,1
33.0,7.0,-22.0,-10.0,-7.0,-5.0,-17.0,7.0,0.0,0.0,0.0,0.0,0.0,0.0,0.0,0.0,1
36.0,12.0,-19.0,-4.0,-7.0,-13.0,-10.0,14.0,0.0,0.0,0.0,0.0,0.0,0.0,0.0,0.0,1
19.0,8.0,-24.0,-4.0,-9.0,-12.0,-13.0,6.0,0.0,0.0,0.0,0.0,0.0,0.0,0.0,0.0,1
12.0,-5.0,-16.0,4.0,-7.0,-16.0,-20.0,2.0,0.0,0.0,0.0,0.0,0.0,0.0,0.0,0.0,1
21.0,-10.0,-3.0,5.0,-2.0,-8.0,-18.0,1.0,0.0,0.0,0.0,0.0,0.0,0.0,0.0,0.0,1
26.0,-2.0,-1.0,0.0,-2.0,-3.0,-12.0,-3.0,0.0,0.0,0.0,0.0,0.0,0.0,0.0,0.0,1
12.0,-7.0,1.0,0.0,1.0,-3.0,-6.0,-10.0,0.0,0.0,0.0,0.0,0.0,0.0,0.0,0.0,1
-22.0,-14.0,6.0,0.0,-5.0,4.0,5.0,-9.0,0.0,0.0,0.0,0.0,0.0,0.0,0.0,0.0,1
-37.0,-16.0,-1.0,-4.0,-4.0,-7.0,13.0,-2.0,0.0,0.0,0.0,0.0,0.0,0.0,0.0,0.0,1
-29.0,-4.0,3.0,-2.0,0.0,-1.0,17.0,-5.0,0.0,0.0,0.0,0.0,0.0,0.0,0.0,0.0,1
-38.0,-1.0,11.0,-10.0,-1.0,15.0,22.0,-8.0,0.0,0.0,0.0,0.0,0.0,0.0,0.0,0.0,1
-34.0,2.0,12.0,-4.0,-7.0,12.0,11.0,-7.0,0.0,0.0,0.0,0.0,0.0,0.0,0.0,0.0,1
-11.0,18.0,13.0,5.0,3.0,-2.0,4.0,-5.0,0.0,0.0,0.0,0.0,0.0,0.0,0.0,0.0,1
-2.0,23.0,14.0,13.0,14.0,-5.0,7.0,-11.0,0.0,0.0,0.0,0.0,0.0,0.0,0.0,0.0,1
18.0,19.0,14.0,6.0,4.0,-1.0,8.0,-7.0,0.0,0.0,0.0,0.0,0.0,0.0,0.0,0.0,1
16.0,20.0,10.0,0.0,-3.0,1.0,0.0,-5.0,0.0,0.0,0.0,0.0,0.0,0.0,0.0,0.0,1
8.0,11.0,0.0,-6.0,-3.0,-2.0,-6.0,2.0,0.0,0.0,0.0,0.0,0.0,0.0,0.0,0.0,1
-11.0,-15.0,-6.0,-7.0,2.0,-4.0,-4.0,0.0,0.0,0.0,0.0,0.0,0.0,0.0,0.0,0.0,1
-22.0,-48.0,-22.0,-13.0,-2.0,-6.0,-8.0,1.0,0.0,0.0,0.0,0.0,0.0,0.0,0.0,0.0,1
-18.0,-61.0,-24.0,-22.0,-12.0,-5.0,-9.0,2.0,0.0,0.0,0.0,0.0,0.0,0.0,0.0,0.0,1
-7.0,-49.0,-24.0,-17.0,-19.0,-2.0,-10.0,8.0,0.0,0.0,0.0,0.0,0.0,0.0,0.0,0.0,1
-4.0,4.0,-12.0,3.0,-13.0,-3.0,-18.0,3.0,0.0,0.0,0.0,0.0,0.0,0.0,0.0,0.0,1
22.0,46.0,0.0,11.0,-6.0,-7.0,-16.0,3.0,0.0,0.0,0.0,0.0,0.0,0.0,0.0,0.0,1
39.0,36.0,-9.0,7.0,-1.0,-14.0,-19.0,5.0,0.0,0.0,0.0,0.0,0.0,0.0,0.0,0.0,1
56.0,27.0,-7.0,-10.0,-4.0,-23.0,-18.0,4.0,0.0,0.0,0.0,0.0,0.0,0.0,0.0,0.0,1
46.0,12.0,-17.0,-26.0,-16.0,-16.0,-12.0,-1.0,0.0,0.0,0.0,0.0,0.0,0.0,0.0,0.0,1
29.0,-6.0,-25.0,-22.0,-11.0,-6.0,-17.0,-9.0,0.0,0.0,0.0,0.0,0.0,0.0,0.0,0.0,1
-18.0,-16.0,-15.0,-4.0,3.0,2.0,0.0,-14.0,0.0,0.0,0.0,0.0,0.0,0.0,0.0,0.0,1
-50.0,-25.0,13.0,15.0,19.0,7.0,16.0,-11.0,0.0,0.0,0.0,0.0,0.0,0.0,0.0,0.0,1
-46.0,-21.0,28.0,26.0,17.0,8.0,18.0,-1.0,0.0,0.0,0.0,0.0,0.0,0.0,0.0,0.0,1
-40.0,-8.0,35.0,21.0,11.0,13.0,24.0,3.0,0.0,0.0,0.0,0.0,0.0,0.0,0.0,0.0,1
-44.0,-17.0,20.0,8.0,6.0,12.0,26.0,-2.0,0.0,0.0,0.0,0.0,0.0,0.0,0.0,0.0,1
-33.0,-28.0,0.0,3.0,1.0,5.0,11.0,-3.0,0.0,0.0,0.0,0.0,0.0,0.0,0.0,0.0,1
-21.0,-18.0,9.0,2.0,-3.0,-4.0,3.0,-12.0,0.0,0.0,0.0,0.0,0.0,0.0,0.0,0.0,1
2.0,10.0,16.0,2.0,-2.0,1.0,-2.0,-13.0,0.0,0.0,0.0,0.0,0.0,0.0,0.0,0.0,1
18.0,31.0,4.0,-6.0,-5.0,3.0,-3.0,-7.0,0.0,0.0,0.0,0.0,0.0,0.0,0.0,0.0,1
25.0,46.0,-13.0,-22.0,-9.0,-1.0,-10.0,-1.0,0.0,0.0,0.0,0.0,0.0,0.0,0.0,0.0,1
24.0,39.0,-12.0,-16.0,-5.0,-6.0,-11.0,-1.0,0.0,0.0,0.0,0.0,0.0,0.0,0.0,0.0,1
13.0,29.0,-7.0,-12.0,-8.0,-7.0,-15.0,-2.0,0.0,0.0,0.0,0.0,0.0,0.0,0.0,0.0,1
-3.0,20.0,0.0,-8.0,-12.0,-9.0,-7.0,4.0,0.0,0.0,0.0,0.0,0.0,0.0,0.0,0.0,1
-8.0,5.0,-14.0,-6.0,-12.0,-5.0,-14.0,5.0,0.0,0.0,0.0,0.0,0.0,0.0,0.0,0.0,1
1.0,-31.0,-28.0,-13.0,-7.0,-12.0,-15.0,3.0,0.0,0.0,0.0,0.0,0.0,0.0,0.0,0.0,1
23.0,-52.0,-38.0,-14.0,-5.0,-13.0,-17.0,5.0,0.0,0.0,0.0,0.0,0.0,0.0,0.0,0.0,1
36.0,-63.0,-37.0,-15.0,-3.0,-10.0,-21.0,8.0,0.0,0.0,0.0,0.0,0.0,0.0,0.0,0.0,1
24.0,-69.0,-24.0,-3.0,-4.0,-6.0,-7.0,4.0,0.0,0.0,0.0,0.0,0.0,0.0,0.0,0.0,1
3.0,-47.0,-14.0,0.0,1.0,-6.0,-9.0,3.0,0.0,0.0,0.0,0.0,0.0,0.0,0.0,0.0,1
-4.0,-28.0,-1.0,4.0,3.0,-3.0,-10.0,-7.0,0.0,0.0,0.0,0.0,0.0,0.0,0.0,0.0,1
-27.0,-10.0,3.0,7.0,3.0,-6.0,4.0,-14.0,0.0,0.0,0.0,0.0,0.0,0.0,0.0,0.0,1
-51.0,55.0,25.0,10.0,1.0,1.0,14.0,-11.0,0.0,0.0,0.0,0.0,0.0,0.0,0.0,0.0,1
