CH1,CH2,CH3,CH4,CH5,CH6,CH7,CH8,CH9,CH10,CH11,CH12,CH13,CH14,CH15,CH16,label
1183.0,-3020.0,-1064.0,-791.0,21.0,-9993.0,-2979.0,-1367.0,0.0,0.0,0.0,0.0,0.0,0.0,0.0,0.0,0
-370.0,943.0,326.0,266.0,-6.0,3194.0,923.0,451.0,0.0,0.0,0.0,0.0,0.0,0.0,0.0,0.0,0
-765.0,1983.0,690.0,523.0,-14.0,6580.0,1947.0,902.0,0.0,0.0,0.0,0.0,0.0,0.0,0.0,0.0,0
-658.0,1694.0,597.0,428.0,-14.0,5561.0,1662.0,752.0,0.0,0.0,0.0,0.0,0.0,0.0,0.0,0.0,0
-397.0,983.0,352.0,242.0,-9.0,3200.0,984.0,428.0,0.0,0.0,0.0,0.0,0.0,0.0,0.0,0.0,0
-95.0,155.0,69.0,20.0,-4.0,454.0,173.0,43.0,0.0,0.0,0.0,0.0,0.0,0.0,0.0,0.0,0
224.0,-649.0,-223.0,-198.0,2.0,-2249.0,-640.0,-324.0,0.0,0.0,0.0,0.0,0.0,0.0,0.0,0.0,0
452.0,-1172.0,-410.0,-316.0,2.0,-3944.0,-1158.0,-551.0,0.0,0.0,0.0,0.0,0.0,0.0,0.0,0.0,0
456.0,-1175.0,-411.0,-295.0,-2.0,-3818.0,-1149.0,-527.0,0.0,0.0,0.0,0.0,0.0,0.0,0.0,0.0,0
284.0,-722.0,-258.0,-173.0,-1.0,-2269.0,-704.0,-306.0,0.0,0.0,0.0,0.0,0.0,0.0,0.0,0.0,0
95.0,-236.0,-90.0,-38.0,-2.0,-662.0,-223.0,-83.0,0.0,0.0,0.0,0.0,0.0,0.0,0.0,0.0,0
10.0,-15.0,-15.0,26.0,1.0,88.0,-16.0,23.0,0.0,0.0,0.0,0.0,0.0,0.0,0.0,0.0,0
3.0,70.0,7.0,38.0,4.0,314.0,51.0,58.0,0.0,0.0,0.0,0.0,0.0,0.0,0.0,0.0,0
-48.0,235.0,55.0,61.0,0.0,777.0,204.0,115.0,0.0,0.0,0.0,0.0,0.0,0.0,0.0,0.0,0
-146.0,451.0,131.0,109.0,-11.0,1458.0,407.0,209.0,0.0,0.0,0.0,0.0,0.0,0.0,0.0,0.0,0
-200.0,509.0,159.0,108.0,-13.0,1617.0,464.0,231.0,0.0,0.0,0.0,0.0,0.0,0.0,0.0,0.0,0
-149.0,290.0,96.0,46.0,-8.0,893.0,273.0,119.0,0.0,0.0,0.0,0.0,0.0,0.0,0.0,0.0,0
-37.0,-8.0,12.0,-16.0,3.0,-70.0,8.0,-18.0,0.0,0.0,0.0,0.0,0.0,0.0,0.0,0.0,0
12.0,-112.0,-10.0,-37.0,8.0,-405.0,-82.0,-73.0,0.0,0.0,0.0,0.0,0.0,0.0,0.0,0.0,0
-12.0,-27.0,15.0,-11.0,6.0,-101.0,12.0,-27.0,0.0,0.0,0.0,0.0,0.0,0.0,0.0,0.0,0
-26.0,30.0,28.0,5.0,0.0,109.0,57.0,4.0,0.0,0.0,0.0,0.0,0.0,0.0,0.0,0.0,0
22.0,-70.0,-12.0,-15.0,-6.0,-219.0,-42.0,-37.0,0.0,0.0,0.0,0.0,0.0,0.0,0.0,0.0,0
63.0,-196.0,-70.0,-57.0,-6.0,-653.0,-176.0,-105.0,0.0,0.0,0.0,0.0,0.0,0.0,0.0,0.0,0
41.0,-152.0,-47.0,-40.0,-9.0,-537.0,-149.0,-90.0,0.0,0.0,0.0,0.0,0.0,0.0,0.0,0.0,0
-14.0,21.0,15.0,15.0,-6.0,61.0,12.0,5.0,0.0,0.0,0.0,0.0,0.0,0.0,0.0,0.0,0
-40.0,131.0,65.0,50.0,1.0,450.0,127.0,61.0,0.0,0.0,0.0,0.0,0.0,0.0,0.0,0.0,0
-14.0,71.0,45.0,34.0,0.0,214.0,59.0,33.0,0.0,0.0,0.0,0.0,0.0,0.0,0.0,0.0,0
35.0,-65.0,-25.0,-16.0,-1.0,-226.0,-85.0,-31.0,0.0,0.0,0.0,0.0,0.0,0.0,0.0,0.0,0
42.0,-91.0,-60.0,-34.0,2.0,-235.0,-96.0,-32.0,0.0,0.0,0.0,0.0,0.0,0.0,0.0,0.0,0
-2.0,23.0,-37.0,-8.0,-10.0,183.0,27.0,29.0,0.0,0.0,0.0,0.0,0.0,0.0,0.0,0.0,0
-24.0,98.0,-18.0,12.0,-10.0,419.0,98.0,66.0,0.0,0.0,0.0,0.0,0.0,0.0,0.0,0.0,0
19.0,29.0,-39.0,-3.0,-13.0,123.0,6.0,21.0,0.0,0.0,0.0,0.0,0.0,0.0,0.0,0.0,0
58.0,-95.0,-73.0,-34.0,-4.0,-315.0,-125.0,-32.0,0.0,0.0,0.0,0.0,0.0,0.0,0.0,0.0,0
29.0,-102.0,-53.0,-37.0,-2.0,-318.0,-112.0,-34.0,0.0,0.0,0.0,0.0,0.0,0.0,0.0,0.0,0
-20.0,18.0,11.0,-2.0,3.0,74.0,9.0,23.0,0.0,0.0,0.0,0.0,0.0,0.0,0.0,0.0,0
-55.0,100.0,47.0,25.0,5.0,325.0,93.0,52.0,0.0,0.0,0.0,0.0,0.0,0.0,0.0,0.0,0
-38.0,32.0,52.0,31.0,4.0,96.0,38.0,8.0,0.0,0.0,0.0,0.0,0.0,0.0,0.0,0.0,0
1.0,-79.0,33.0,14.0,15.0,-264.0,-53.0,-46.0,0.0,0.0,0.0,0.0,0.0,0.0,0.0,0.0,0
3.0,-65.0,29.0,4.0,15.0,-253.0,-36.0,-52.0,0.0,0.0,0.0,0.0,0.0,0.0,0.0,0.0,0
-33.0,40.0,25.0,3.0,-4.0,99.0,71.0,-7.0,0.0,0.0,0.0,0.0,0.0,0.0,0.0,0.0,0
-36.0,117.0,32.0,14.0,-24.0,315.0,109.0,21.0,0.0,0.0,0.0,0.0,0.0,0.0,0.0,0.0,0
-5.0,62.0,16.0,-3.0,-21.0,103.0,42.0,0.0,0.0,0.0,0.0,0.0,0.0,0.0,0.0,0.0,0
2.0,-58.0,-23.0,-40.0,-8.0,-242.0,-49.0,-29.0,0.0,0.0,0.0,0.0,0.0,0.0,0.0,0.0,0
-9.0,-86.0,-20.0,-41.0,-2.0,-245.0,-59.0,-37.0,0.0,0.0,0.0,0.0,0.0,0.0,0.0,0.0,0
-31.0,-4.0,-4.0,-11.0,6.0,71.0,20.0,7.0,0.0,0.0,0.0,0.0,0.0,0.0,0.0,0.0,0
-24.0,56.0,13.0,17.0,4.0,264.0,74.0,34.0,0.0,0.0,0.0,0.0,0.0,0.0,0.0,0.0,0
14.0,16.0,-7.0,13.0,1.0,86.0,20.0,5.0,0.0,0.0,0.0,0.0,0.0,0.0,0.0,0.0,0
52.0,-55.0,-49.0,-27.0,-5.0,-219.0,-80.0,-37.0,0.0,0.0,0.0,0.0,0.0,0.0,0.0,0.0,0
70.0,-56.0,-62.0,-29.0,-13.0,-225.0,-99.0,-31.0,0.0,0.0,0.0,0.0,0.0,0.0,0.0,0.0,0
35.0,40.0,0.0,8.0,-7.0,65.0,-15.0,16.0,0.0,0.0,0.0,0.0,0.0,0.0,0.0,0.0,0
-13.0,85.0,45.0,33.0,0.0,244.0,46.0,38.0,0.0,0.0,0.0,0.0,0.0,0.0,0.0,0.0,0
-27.0,-2.0,-1.0,11.0,-9.0,71.0,-7.0,19.0,0.0,0.0,0.0,0.0,0.0,0.0,0.0,0.0,0
-21.0,-135.0,-95.0,-38.0,-15.0,-194.0,-91.0,-18.0,0.0,0.0,0.0,0.0,0.0,0.0,0.0,0.0,0
-5.0,-121.0,-90.0,-33.0,-4.0,-184.0,-74.0,-14.0,0.0,0.0,0.0,0.0,0.0,0.0,0.0,0.0,0
8.0,8.0,-5.0,13.0,8.0,83.0,16.0,27.0,0.0,0.0,0.0,0.0,0.0,0.0,0.0,0.0,0
-3.0,81.0,42.0,33.0,9.0,242.0,71.0,45.0,0.0,0.0,0.0,0.0,0.0,0.0,0.0,0.0,0
6.0,50.0,49.0,21.0,9.0,84.0,40.0,12.0,0.0,0.0,0.0,0.0,0.0,0.0,0.0,0.0,0
21.0,-21.0,42.0,3.0,10.0,-172.0,-25.0,-30.0,0.0,0.0,0.0,0.0,0.0,0.0,0.0,0.0,0
-10.0,-4.0,58.0,6.0,5.0,-174.0,-24.0,-45.0,0.0,0.0,0.0,0.0,0.0,0.0,0.0,0.0,0
-50.0,65.0,41.0,-4.0,-9.0,49.0,47.0,-23.0,0.0,0.0,0.0,0.0,0.0,0.0,0.0,0.0,0
-54.0,83.0,11.0,-4.0,-12.0,185.0,84.0,-1.0,0.0,0.0,0.0,0.0,0.0,0.0,0.0,0.0,0
-26.0,12.0,-2.0,-10.0,-5.0,56.0,38.0,-1.0,0.0,0.0,0.0,0.0,0.0,0.0,0.0,0.0,0
1.0,-77.0,-35.0,-39.0,-6.0,-159.0,-32.0,-31.0,0.0,0.0,0.0,0.0,0.0,0.0,0.0,0.0,0
11.0,-72.0,-58.0,-45.0,-12.0,-154.0,-39.0,-30.0,0.0,0.0,0.0,0.0,0.0,0.0,0.0,0.0,0
-13.0,1.0,-38.0,-24.0,-7.0,53.0,16.0,7.0,0.0,0.0,0.0,0.0,0.0,0.0,0.0,0.0,0
-38.0,38.0,4.0,6.0,-3.0,184.0,48.0,28.0,0.0,0.0,0.0,0.0,0.0,0.0,0.0,0.0,0
-21.0,9.0,30.0,15.0,-6.0,47.0,6.0,6.0,0.0,0.0,0.0,0.0,0.0,0.0,0.0,0.0,0
29.0,-27.0,42.0,16.0,4.0,-154.0,-57.0,-24.0,0.0,0.0,0.0,0.0,0.0,0.0,0.0,0.0,0
56.0,-38.0,27.0,21.0,7.0,-149.0,-74.0,-13.0,0.0,0.0,0.0,0.0,0.0,0.0,0.0,0.0,0
42.0,6.0,-1.0,17.0,-3.0,43.0,-21.0,11.0,0.0,0.0,0.0,0.0,0.0,0.0,0.0,0.0,0
14.0,32.0,-2.0,22.0,-1.0,164.0,20.0,22.0,0.0,0.0,0.0,0.0,0.0,0.0,0.0,0.0,0
21.0,2.0,-47.0,3.0,-7.0,50.0,-15.0,8.0,0.0,0.0,0.0,0.0,0.0,0.0,0.0,0.0,0
40.0,-49.0,-100.0,-33.0,-7.0,-128.0,-71.0,-4.0,0.0,0.0,0.0,0.0,0.0,0.0,0.0,0.0,0
26.0,-48.0,-93.0,-46.0,-5.0,-128.0,-52.0,-3.0,0.0,0.0,0.0,0.0,0.0,0.0,0.0,0.0,0
-5.0,7.0,-35.0,-13.0,0.0,49.0,7.0,17.0,0.0,0.0,0.0,0.0,0.0,0.0,0.0,0.0,0
-55.0,42.0,28.0,16.0,6.0,158.0,50.0,31.0,0.0,0.0,0.0,0.0,0.0,0.0,0.0,0.0,0
-95.0,8.0,41.0,16.0,3.0,56.0,35.0,3.0,0.0,0.0,0.0,0.0,0.0,0.0,0.0,0.0,0
-30.0,-32.0,38.0,1.0,-1.0,-103.0,-5.0,-16.0,0.0,0.0,0.0,0.0,0.0,0.0,0.0,0.0,0
20.0,1.0,59.0,5.0,1.0,-109.0,-3.0,-20.0,0.0,0.0,0.0,0.0,0.0,0.0,0.0,0.0,0
-8.0,47.0,62.0,13.0,1.0,40.0,43.0,-9.0,0.0,0.0,0.0,0.0,0.0,0.0,0.0,0.0,0
-26.0,51.0,33.0,5.0,-4.0,126.0,58.0,-1.0,0.0,0.0,0.0,0.0,0.0,0.0,0.0,0.0,0
-7.0,-1.0,1.0,-15.0,-8.0,34.0,24.0,-18.0,0.0,0.0,0.0,0.0,0.0,0.0,0.0,0.0,0
5.0,-36.0,-6.0,-23.0,-4.0,-111.0,-14.0,-34.0,0.0,0.0,0.0,0.0,0.0,0.0,0.0,0.0,0
-11.0,-29.0,5.0,-14.0,-7.0,-107.0,-16.0,-27.0,0.0,0.0,0.0,0.0,0.0,0.0,0.0,0.0,0
-20.0,-4.0,-4.0,5.0,-2.0,34.0,11.0,-2.0,0.0,0.0,0.0,0.0,0.0,0.0,0.0,0.0,0
-10.0,6.0,-27.0,5.0,-2.0,116.0,22.0,14.0,0.0,0.0,0.0,0.0,0.0,0.0,0.0,0.0,0
15.0,-1.0,-40.0,-11.0,-7.0,31.0,-10.0,5.0,0.0,0.0,0.0,0.0,0.0,0.0,0.0,0.0,0
40.0,-25.0,-53.0,-25.0,-11.0,-102.0,-45.0,-11.0,0.0,0.0,0.0,0.0,0.0,0.0,0.0,0.0,0
49.0,-26.0,-34.0,-8.0,-10.0,-110.0,-58.0,-6.0,0.0,0.0,0.0,0.0,0.0,0.0,0.0,0.0,0
16.0,11.0,-14.0,2.0,-2.0,21.0,-21.0,17.0,0.0,0.0,0.0,0.0,0.0,0.0,0.0,0.0,0
-5.0,38.0,8.0,10.0,4.0,107.0,14.0,30.0,0.0,0.0,0.0,0.0,0.0,0.0,0.0,0.0,0
-5.0,10.0,7.0,7.0,3.0,41.0,-17.0,15.0,0.0,0.0,0.0,0.0,0.0,0.0,0.0,0.0,0
11.0,-37.0,-4.0,5.0,-1.0,-84.0,-48.0,-7.0,0.0,0.0,0.0,0.0,0.0,0.0,0.0,0.0,0
0.0,-44.0,3.0,8.0,-1.0,-80.0,-41.0,-6.0,0.0,0.0,0.0,0.0,0.0,0.0,0.0,0.0,0
-24.0,-23.0,-3.0,8.0,-6.0,32.0,-5.0,7.0,0.0,0.0,0.0,0.0,0.0,0.0,0.0,0.0,0
-31.0,-8.0,-22.0,-2.0,2.0,103.0,26.0,18.0,0.0,0.0,0.0,0.0,0.0,0.0,0.0,0.0,0
-7.0,9.0,-21.0,-8.0,-3.0,34.0,21.0,-3.0,0.0,0.0,0.0,0.0,0.0,0.0,0.0,0.0,0
14.0,1.0,-9.0,-7.0,-1.0,-67.0,-1.0,-16.0,0.0,0.0,0.0,0.0,0.0,0.0,0.0,0.0,0
5.0,13.0,29.0,-4.0,5.0,-69.0,14.0,-20.0,0.0,0.0,0.0,0.0,0.0,0.0,0.0,0.0,0
-3.0,36.0,61.0,-1.0,4.0,26.0,48.0,-12.0,0.0,0.0,0.0,0.0,0.0,0.0,0.0,0.0,0
-17.0,40.0,53.0,1.0,5.0,83.0,45.0,-2.0,0.0,0.0,0.0,0.0,0.0,0.0,0.0,0.0,0
-36.0,16.0,36.0,11.0,-1.0,18.0,23.0,-7.0,0.0,0.0,0.0,0.0,0.0,0.0,0.0,0.0,0
-45.0,-14.0,36.0,5.0,0.0,-75.0,-6.0,-17.0,0.0,0.0,0.0,0.0,0.0,0.0,0.0,0.0,0
-47.0,-30.0,-3.0,-15.0,-3.0,-80.0,-11.0,-17.0,0.0,0.0,0.0,0.0,0.0,0.0,0.0,0.0,0
-31.0,-20.0,-48.0,-20.0,-18.0,14.0,-1.0,-6.0,0.0,0.0,0.0,0.0,0.0,0.0,0.0,0.0,0
18.0,32.0,-53.0,-31.0,-22.0,76.0,17.0,-1.0,0.0,0.0,0.0,0.0,0.0,0.0,0.0,0.0,0
59.0,27.0,-67.0,-34.0,-18.0,22.0,1.0,-8.0,0.0,0.0,0.0,0.0,0.0,0.0,0.0,0.0,0
40.0,-15.0,-61.0,-18.0,-1.0,-71.0,-30.0,-6.0,0.0,0.0,0.0,0.0,0.0,0.0,0.0,0.0,0
11.0,-31.0,-22.0,1.0,6.0,-75.0,-54.0,2.0,0.0,0.0,0.0,0.0,0.0,0.0,0.0,0.0,0
-2.0,-13.0,32.0,33.0,12.0,14.0,-26.0,12.0,0.0,0.0,0.0,0.0,0.0,0.0,0.0,0.0,0
-33.0,-4.0,55.0,45.0,10.0,72.0,-1.0,10.0,0.0,0.0,0.0,0.0,0.0,0.0,0.0,0.0,0
-18.0,-31.0,31.0,37.0,1.0,21.0,-30.0,13.0,0.0,0.0,0.0,0.0,0.0,0.0,0.0,0.0,0
65.0,-52.0,-9.0,6.0,-8.0,-55.0,-45.0,6.0,0.0,0.0,0.0,0.0,0.0,0.0,0.0,0.0,0
83.0,-24.0,-8.0,-11.0,-11.0,-49.0,-33.0,0.0,0.0,0.0,0.0,0.0,0.0,0.0,0.0,0.0,0
30.0,28.0,-14.0,-11.0,0.0,24.0,-3.0,13.0,0.0,0.0,0.0,0.0,0.0,0.0,0.0,0.0,0
-11.0,65.0,-28.0,-28.0,-4.0,77.0,26.0,17.0,0.0,0.0,0.0,0.0,0.0,0.0,0.0,0.0,0
-40.0,32.0,-38.0,-38.0,-4.0,25.0,17.0,-4.0,0.0,0.0,0.0,0.0,0.0,0.0,0.0,0.0,0
-65.0,-6.0,-26.0,-34.0,-10.0,-54.0,2.0,-14.0,0.0,0.0,0.0,0.0,0.0,0.0,0.0,0.0,0
-42.0,9.0,27.0,8.0,3.0,-51.0,20.0,-15.0,0.0,0.0,0.0,0.0,0.0,0.0,0.0,0.0,0
-30.0,12.0,45.0,26.0,5.0,18.0,47.0,-8.0,0.0,0.0,0.0,0.0,0.0,0.0,0.0,0.0,0
-18.0,-9.0,20.0,21.0,6.0,52.0,39.0,-9.0,0.0,0.0,0.0,0.0,0.0,0.0,0.0,0.0,0
-19.0,-48.0,11.0,9.0,-4.0,17.0,21.0,-19.0,0.0,0.0,0.0,0.0,0.0,0.0,0.0,0.0,0
-39.0,-78.0,6.0,-9.0,-5.0,-50.0,7.0,-23.0,0.0,0.0,0.0,0.0,0.0,0.0,0.0,0.0,0
-25.0,-46.0,-6.0,-21.0,-10.0,-60.0,-1.0,-11.0,0.0,0.0,0.0,0.0,0.0,0.0,0.0,0.0,0
-4.0,8.0,-8.0,-16.0,-8.0,-1.0,2.0,-4.0,0.0,0.0,0.0,0.0,0.0,0.0,0.0,0.0,0
22.0,57.0,7.0,-2.0,-1.0,50.0,2.0,5.0,0.0,0.0,0.0,0.0,0.0,0.0,0.0,0.0,0
46.0,63.0,19.0,3.0,1.0,18.0,-14.0,2.0,0.0,0.0,0.0,0.0,0.0,0.0,0.0,0.0,0
45.0,27.0,-2.0,-3.0,2.0,-44.0,-31.0,-8.0,0.0,0.0,0.0,0.0,0.0,0.0,0.0,0.0,0
41.0,17.0,-23.0,-9.0,-5.0,-53.0,-47.0,1.0,0.0,0.0,0.0,0.0,0.0,0.0,0.0,0.0,0
25.0,17.0,-19.0,-3.0,-5.0,3.0,-30.0,11.0,0.0,0.0,0.0,0.0,0.0,0.0,0.0,0.0,0
2.0,4.0,-22.0,0.0,-2.0,45.0,-11.0,8.0,0.0,0.0,0.0,0.0,0.0,0.0,0.0,0.0,0
16.0,-29.0,-29.0,-1.0,-5.0,14.0,-27.0,7.0,0.0,0.0,0.0,0.0,0.0,0.0,0.0,0.0,0
13.0,-67.0,-39.0,10.0,7.0,-30.0,-36.0,6.0,0.0,0.0,0.0,0.0,0.0,0.0,0.0,0.0,0
-27.0,-83.0,-43.0,6.0,6.0,-36.0,-22.0,10.0,0.0,0.0,0.0,0.0,0.0,0.0,0.0,0.0,0
-43.0,-58.0,-18.0,-4.0,-1.0,13.0,-5.0,10.0,0.0,0.0,0.0,0.0,0.0,0.0,0.0,0.0,0
-30.0,-3.0,2.0,3.0,-3.0,44.0,13.0,12.0,0.0,0.0,0.0,0.0,0.0,0.0,0.0,0.0,0
-15.0,31.0,11.0,-7.0,-9.0,18.0,16.0,0.0,0.0,0.0,0.0,0.0,0.0,0.0,0.0,0.0,0
-9.0,45.0,30.0,-13.0,-5.0,-30.0,7.0,-15.0,0.0,0.0,0.0,0.0,0.0,0.0,0.0,0.0,0
-11.0,41.0,44.0,-6.0,-4.0,-32.0,25.0,-23.0,0.0,0.0,0.0,0.0,0.0,0.0,0.0,0.0,0
-18.0,41.0,40.0,3.0,1.0,15.0,38.0,-21.0,0.0,0.0,0.0,0.0,0.0,0.0,0.0,0.0,0
3.0,34.0,31.0,4.0,-5.0,44.0,30.0,-17.0,0.0,0.0,0.0,0.0,0.0,0.0,0.0,0.0,0
-1.0,6.0,14.0,3.0,2.0,8.0,22.0,-11.0,0.0,0.0,0.0,0.0,0.0,0.0,0.0,0.0,0
-10.0,-29.0,4.0,-2.0,6.0,-29.0,10.0,-8.0,0.0,0.0,0.0,0.0,0.0,0.0,0.0,0.0,0
-15.0,-24.0,1.0,-1.0,-4.0,-36.0,3.0,-9.0,0.0,0.0,0.0,0.0,0.0,0.0,0.0,0.0,0
-10.0,-13.0,-11.0,-3.0,-1.0,-5.0,2.0,-4.0,0.0,0.0,0.0,0.0,0.0,0.0,0.0,0.0,0
-9.0,-18.0,-22.0,-5.0,-6.0,23.0,-5.0,-4.0,0.0,0.0,0.0,0.0,0.0,0.0,0.0,0.0,0
-10.0,-19.0,-24.0,-19.0,-7.0,6.0,-10.0,-6.0,0.0,0.0,0.0,0.0,0.0,0.0,0.0,0.0,0
0.0,-11.0,-15.0,-16.0,-5.0,-35.0,-25.0,-7.0,0.0,0.0,0.0,0.0,0.0,0.0,0.0,0.0,0
35.0,-4.0,-23.0,-10.0,-6.0,-41.0,-46.0,-2.0,0.0,0.0,0.0,0.0,0.0,0.0,0.0,0.0,0
56.0,22.0,-32.0,-10.0,-11.0,6.0,-31.0,8.0,0.0,0.0,0.0,0.0,0.0,0.0,0.0,0.0,0
28.0,29.0,-13.0,-8.0,-9.0,29.0,-10.0,11.0,0.0,0.0,0.0,0.0,0.0,0.0,0.0,0.0,0
-9.0,-1.0,-7.0,4.0,-3.0,17.0,-19.0,17.0,0.0,0.0,0.0,0.0,0.0,0.0,0.0,0.0,0
-16.0,-28.0,-19.0,7.0,-7.0,-23.0,-36.0,10.0,0.0,0.0,0.0,0.0,0.0,0.0,0.0,0.0,0
2.0,-32.0,-22.0,3.0,-8.0,-20.0,-31.0,6.0,0.0,0.0,0.0,0.0,0.0,0.0,0.0,0.0,0
3.0,-39.0,-20.0,4.0,-1.0,12.0,-9.0,11.0,0.0,0.0,0.0,0.0,0.0,0.0,0.0,0.0,0
-31.0,-18.0,3.0,16.0,7.0,38.0,15.0,11.0,0.0,0.0,0.0,0.0,0.0,0.0,0.0,0.0,0
-55.0,-7.0,30.0,15.0,17.0,12.0,18.0,-6.0,0.0,0.0,0.0,0.0,0.0,0.0,0.0,0.0,0
-20.0,-4.0,20.0,-6.0,0.0,-22.0,12.0,-22.0,0.0,0.0,0.0,0.0,0.0,0.0,0.0,0.0,0
8.0,0.0,27.0,-4.0,3.0,-20.0,14.0,-25.0,0.0,0.0,0.0,0.0,0.0,0.0,0.0,0.0,0
1.0,18.0,43.0,14.0,2.0,9.0,33.0,-17.0,0.0,0.0,0.0,0.0,0.0,0.0,0.0,0.0,0
7.0,45.0,40.0,7.0,4.0,23.0,35.0,-5.0,0.0,0.0,0.0,0.0,0.0,0.0,0.0,0.0,0
8.0,21.0,8.0,-15.0,-8.0,0.0,30.0,-5.0,0.0,0.0,0.0,0.0,0.0,0.0,0.0,0.0,0
-6.0,-9.0,-40.0,-41.0,-16.0,-29.0,14.0,-10.0,0.0,0.0,0.0,0.0,0.0,0.0,0.0,0.0,0
-28.0,17.0,-35.0,-43.0,-13.0,-21.0,3.0,-8.0,0.0,0.0,0.0,0.0,0.0,0.0,0.0,0.0,0
-26.0,49.0,-5.0,-9.0,-4.0,1.0,5.0,-2.0,0.0,0.0,0.0,0.0,0.0,0.0,0.0,0.0,0
-30.0,34.0,15.0,14.0,5.0,16.0,2.0,1.0,0.0,0.0,0.0,0.0,0.0,0.0,0.0,0.0,0
5.0,-1.0,21.0,20.0,3.0,7.0,-3.0,1.0,0.0,0.0,0.0,0.0,0.0,0.0,0.0,0.0,0
40.0,-21.0,9.0,8.0,-1.0,-29.0,-27.0,-10.0,0.0,0.0,0.0,0.0,0.0,0.0,0.0,0.0,0
45.0,-51.0,-25.0,-5.0,-6.0,-31.0,-43.0,-1.0,0.0,0.0,0.0,0.0,0.0,0.0,0.0,0.0,0
12.0,-64.0,-45.0,-4.0,-10.0,-2.0,-40.0,9.0,0.0,0.0,0.0,0.0,0.0,0.0,0.0,0.0,0
-8.0,-46.0,-37.0,-6.0,-7.0,17.0,-23.0,6.0,0.0,0.0,0.0,0.0,0.0,0.0,0.0,0.0,0
14.0,-24.0,-34.0,-7.0,-10.0,1.0,-25.0,4.0,0.0,0.0,0.0,0.0,0.0,0.0,0.0,0.0,0
29.0,-7.0,-24.0,-2.0,-3.0,-16.0,-27.0,7.0,0.0,0.0,0.0,0.0,0.0,0.0,0.0,0.0,0
-3.0,6.0,-9.0,5.0,2.0,-6.0,-22.0,6.0,0.0,0.0,0.0,0.0,0.0,0.0,0.0,0.0,0
-19.0,5.0,0.0,0.0,3.0,11.0,-12.0,8.0,0.0,0.0,0.0,0.0,0.0,0.0,0.0,0.0,0
-14.0,11.0,9.0,-1.0,9.0,23.0,10.0,13.0,0.0,0.0,0.0,0.0,0.0,0.0,0.0,0.0,0
-10.0,15.0,13.0,4.0,9.0,13.0,22.0,7.0,0.0,0.0,0.0,0.0,0.0,0.0,0.0,0.0,0
-16.0,17.0,21.0,6.0,4.0,-8.0,18.0,-9.0,0.0,0.0,0.0,0.0,0.0,0.0,0.0,0.0,0
-17.0,17.0,29.0,1.0,1.0,-7.0,26.0,-18.0,0.0,0.0,0.0,0.0,0.0,0.0,0.0,0.0,0
-40.0,17.0,20.0,-7.0,-3.0,3.0,34.0,-19.0,0.0,0.0,0.0,0.0,0.0,0.0,0.0,0.0,0
-31.0,23.0,19.0,-11.0,-9.0,12.0,35.0,-15.0,0.0,0.0,0.0,0.0,0.0,0.0,0.0,0.0,0
-19.0,20.0,27.0,-8.0,-9.0,-2.0,18.0,-15.0,0.0,0.0,0.0,0.0,0.0,0.0,0.0,0.0,0
-11.0,0.0,35.0,0.0,-8.0,-21.0,8.0,-14.0,0.0,0.0,0.0,0.0,0.0,0.0,0.0,0.0,0
3.0,-22.0,18.0,6.0,-6.0,-23.0,6.0,-16.0,0.0,0.0,0.0,0.0,0.0,0.0,0.0,0.0,0
11.0,-46.0,-36.0,-29.0,-15.0,-7.0,0.0,-9.0,0.0,0.0,0.0,0.0,0.0,0.0,0.0,0.0,0
12.0,-41.0,-62.0,-32.0,-11.0,4.0,-4.0,-1.0,0.0,0.0,0.0,0.0,0.0,0.0,0.0,0.0,0
22.0,-11.0,-39.0,-15.0,2.0,-4.0,-10.0,-4.0,0.0,0.0,0.0,0.0,0.0,0.0,0.0,0.0,0
23.0,15.0,-15.0,0.0,3.0,-11.0,-19.0,1.0,0.0,0.0,0.0,0.0,0.0,0.0,0.0,0.0,0
16.0,26.0,-13.0,9.0,2.0,-15.0,-35.0,2.0,0.0,0.0,0.0,0.0,0.0,0.0,0.0,0.0,0
9.0,28.0,-2.0,5.0,1.0,0.0,-36.0,8.0,0.0,0.0,0.0,0.0,0.0,0.0,0.0,0.0,0
7.0,11.0,0.0,3.0,4.0,9.0,-26.0,7.0,0.0,0.0,0.0,0.0,0.0,0.0,0.0,0.0,0
19.0,-11.0,4.0,8.0,-1.0,10.0,-23.0,14.0,0.0,0.0,0.0,0.0,0.0,0.0,0.0,0.0,0
18.0,-28.0,-7.0,6.0,-3.0,-5.0,-34.0,8.0,0.0,0.0,0.0,0.0,0.0,0.0,0.0,0.0,0
-12.0,-61.0,-25.0,11.0,-6.0,-14.0,-24.0,10.0,0.0,0.0,0.0,0.0,0.0,0.0,0.0,0.0,0
-47.0,-64.0,-28.0,3.0,1.0,6.0,-12.0,7.0,0.0,0.0,0.0,0.0,0.0,0.0,0.0,0.0,0
-41.0,-21.0,-8.0,1.0,3.0,18.0,7.0,6.0,0.0,0.0,0.0,0.0,0.0,0.0,0.0,0.0,0
-8.0,18.0,12.0,-1.0,-4.0,10.0,21.0,0.0,0.0,0.0,0.0,0.0,0.0,0.0,0.0,0.0,0
12.0,50.0,9.0,-17.0,-10.0,-9.0,19.0,-7.0,0.0,0.0,0.0,0.0,0.0,0.0,0.0,0.0,0
28.0,82.0,25.0,-2.0,-4.0,-10.0,21.0,-21.0,0.0,0.0,0.0,0.0,0.0,0.0,0.0,0.0,0
13.0,65.0,48.0,8.0,5.0,3.0,36.0,-21.0,0.0,0.0,0.0,0.0,0.0,0.0,0.0,0.0,0
-7.0,33.0,51.0,5.0,8.0,8.0,27.0,-11.0,0.0,0.0,0.0,0.0,0.0,0.0,0.0,0.0,0
-20.0,-23.0,13.0,-8.0,3.0,-4.0,19.0,-13.0,0.0,0.0,0.0,0.0,0.0,0.0,0.0,0.0,0
-42.0,-64.0,-23.0,-9.0,-8.0,-21.0,4.0,-19.0,0.0,0.0,0.0,0.0,0.0,0.0,0.0,0.0,0
-54.0,-52.0,-21.0,-8.0,-6.0,-23.0,-5.0,-17.0,0.0,0.0,0.0,0.0,0.0,0.0,0.0,0.0,0
-59.0,-39.0,-18.0,-11.0,-9.0,-4.0,3.0,-6.0,0.0,0.0,0.0,0.0,0.0,0.0,0.0,0.0,0
-33.0,-8.0,-19.0,-15.0,-1.0,17.0,6.0,9.0,0.0,0.0,0.0,0.0,0.0,0.0,0.0,0.0,0
4.0,7.0,-23.0,-24.0,-9.0,2.0,0.0,8.0,0.0,0.0,0.0,0.0,0.0,0.0,0.0,0.0,0
44.0,28.0,-14.0,-19.0,-10.0,-15.0,-21.0,-5.0,0.0,0.0,0.0,0.0,0.0,0.0,0.0,0.0,0
87.0,32.0,10.0,0.0,-10.0,-20.0,-43.0,0.0,0.0,0.0,0.0,0.0,0.0,0.0,0.0,0.0,0
83.0,23.0,20.0,9.0,-4.0,-8.0,-37.0,3.0,0.0,0.0,0.0,0.0,0.0,0.0,0.0,0.0,0
42.0,-3.0,0.0,10.0,-1.0,2.0,-23.0,4.0,0.0,0.0,0.0,0.0,0.0,0.0,0.0,0.0,0
15.0,-19.0,-24.0,5.0,-4.0,-6.0,-36.0,9.0,0.0,0.0,0.0,0.0,0.0,0.0,0.0,0.0,0
-4.0,-9.0,-2.0,21.0,3.0,-12.0,-35.0,10.0,0.0,0.0,0.0,0.0,0.0,0.0,0.0,0.0,0
-35.0,-16.0,8.0,25.0,6.0,1.0,-22.0,10.0,0.0,0.0,0.0,0.0,0.0,0.0,0.0,0.0,0
-48.0,-52.0,-77.0,-15.0,1.0,10.0,-14.0,9.0,0.0,0.0,0.0,0.0,0.0,0.0,0.0,0.0,0
-35.0,-39.0,-92.0,-37.0,-4.0,17.0,3.0,3.0,0.0,0.0,0.0,0.0,0.0,0.0,0.0,0.0,0
-35.0,-34.0,-40.0,-18.0,-2.0,11.0,19.0,-4.0,0.0,0.0,0.0,0.0,0.0,0.0,0.0,0.0,0
-20.0,-13.0,16.0,3.0,-2.0,-2.0,29.0,-6.0,0.0,0.0,0.0,0.0,0.0,0.0,0.0,0.0,0
-15.0,22.0,73.0,22.0,2.0,-5.0,33.0,-14.0,0.0,0.0,0.0,0.0,0.0,0.0,0.0,0.0,0
-18.0,50.0,101.0,22.0,11.0,2.0,42.0,-14.0,0.0,0.0,0.0,0.0,0.0,0.0,0.0,0.0,0
-10.0,42.0,81.0,14.0,6.0,5.0,23.0,-14.0,0.0,0.0,0.0,0.0,0.0,0.0,0.0,0.0,0
0.0,43.0,38.0,1.0,3.0,-4.0,14.0,-18.0,0.0,0.0,0.0,0.0,0.0,0.0,0.0,0.0,0
-13.0,56.0,8.0,-18.0,-13.0,-16.0,8.0,-20.0,0.0,0.0,0.0,0.0,0.0,0.0,0.0,0.0,0
24.0,46.0,-10.0,-25.0,-22.0,-19.0,2.0,-14.0,0.0,0.0,0.0,0.0,0.0,0.0,0.0,0.0,0
79.0,13.0,-30.0,-28.0,-11.0,-8.0,-4.0,1.0,0.0,0.0,0.0,0.0,0.0,0.0,0.0,0.0,0
37.0,-48.0,-33.0,-21.0,-7.0,5.0,-7.0,0.0,0.0,0.0,0.0,0.0,0.0,0.0,0.0,0.0,0
-42.0,-78.0,-30.0,-8.0,-5.0,4.0,-6.0,-5.0,0.0,0.0,0.0,0.0,0.0,0.0,0.0,0.0,0
-41.0,-51.0,-15.0,4.0,5.0,-17.0,-14.0,-2.0,0.0,0.0,0.0,0.0,0.0,0.0,0.0,0.0,0
-35.0,-46.0,-42.0,-9.0,-10.0,-18.0,-34.0,1.0,0.0,0.0,0.0,0.0,0.0,0.0,0.0,0.0,0
-62.0,-64.0,-61.0,-12.0,-13.0,-4.0,-35.0,7.0,0.0,0.0,0.0,0.0,0.0,0.0,0.0,0.0,0
-37.0,-44.0,-15.0,10.0,4.0,8.0,-21.0,13.0,0.0,0.0,0.0,0.0,0.0,0.0,0.0,0.0,0
39.0,-6.0,-2.0,26.0,13.0,6.0,-20.0,21.0,0.0,0.0,0.0,0.0,0.0,0.0,0.0,0.0,0
83.0,31.0,-11.0,14.0,2.0,-6.0,-23.0,21.0,0.0,0.0,0.0,0.0,0.0,0.0,0.0,0.0,0
73.0,59.0,32.0,15.0,-2.0,1.0,-22.0,10.0,0.0,0.0,0.0,0.0,0.0,0.0,0.0,0.0,0
46.0,52.0,48.0,21.0,4.0,10.0,-20.0,-1.0,0.0,0.0,0.0,0.0,0.0,0.0,0.0,0.0,0
15.0,8.0,0.0,-3.0,4.0,14.0,-8.0,-8.0,0.0,0.0,0.0,0.0,0.0,0.0,0.0,0.0,0
-10.0,-6.0,-33.0,-33.0,-4.0,4.0,9.0,-17.0,0.0,0.0,0.0,0.0,0.0,0.0,0.0,0.0,0
-31.0,26.0,-17.0,-23.0,-7.0,-10.0,25.0,-5.0,0.0,0.0,0.0,0.0,0.0,0.0,0.0,0.0,0
-44.0,45.0,26.0,-2.0,-4.0,-10.0,33.0,-15.0,0.0,0.0,0.0,0.0,0.0,0.0,0.0,0.0,0
-77.0,12.0,42.0,5.0,-7.0,-1.0,34.0,-16.0,0.0,0.0,0.0,0.0,0.0,0.0,0.0,0.0,0
-63.0,-37.0,-9.0,-20.0,-8.0,-1.0,21.0,-10.0,0.0,0.0,0.0,0.0,0.0,0.0,0.0,0.0,0
-42.0,-36.0,-16.0,-25.0,-5.0,6.0,23.0,-6.0,0.0,0.0,0.0,0.0,0.0,0.0,0.0,0.0,0
-32.0,-35.0,9.0,-4.0,-1.0,-4.0,19.0,-3.0,0.0,0.0,0.0,0.0,0.0,0.0,0.0,0.0,0
-27.0,-33.0,7.0,3.0,-1.0,-15.0,3.0,-12.0,0.0,0.0,0.0,0.0,0.0,0.0,0.0,0.0,0
16.0,-14.0,-13.0,-5.0,-7.0,-10.0,-3.0,-7.0,0.0,0.0,0.0,0.0,0.0,0.0,0.0,0.0,0
62.0,16.0,0.0,0.0,-2.0,-3.0,-7.0,-5.0,0.0,0.0,0.0,0.0,0.0,0.0,0.0,0.0,0
69.0,41.0,17.0,6.0,-1.0,-2.0,-12.0,-10.0,0.0,0.0,0.0,0.0,0.0,0.0,0.0,0.0,0
45.0,26.0,8.0,0.0,-6.0,-6.0,-22.0,-11.0,0.0,0.0,0.0,0.0,0.0,0.0,0.0,0.0,0
33.0,-8.0,-22.0,-2.0,-2.0,-12.0,-33.0,6.0,0.0,0.0,0.0,0.0,0.0,0.0,0.0,0.0,0
11.0,-8.0,-13.0,9.0,9.0,-2.0,-27.0,16.0,0.0,0.0,0.0,0.0,0.0,0.0,0.0,0.0,0
-14.0,14.0,15.0,20.0,8.0,8.0,-24.0,16.0,0.0,0.0,0.0,0.0,0.0,0.0,0.0,0.0,0
-15.0,-4.0,-7.0,7.0,-3.0,-2.0,-31.0,4.0,0.0,0.0,0.0,0.0,0.0,0.0,0.0,0.0,0
-12.0,-47.0,-60.0,-16.0,-14.0,-10.0,-30.0,7.0,0.0,0.0,0.0,0.0,0.0,0.0,0.0,0.0,0
-9.0,-56.0,-61.0,-14.0,-14.0,-1.0,-17.0,10.0,0.0,0.0,0.0,0.0,0.0,0.0,0.0,0.0,0
-11.0,-46.0,-35.0,-3.0,-4.0,6.0,-7.0,5.0,0.0,0.0,0.0,0.0,0.0,0.0,0.0,0.0,0
-26.0,-27.0,6.0,9.0,1.0,5.0,2.0,-1.0,0.0,0.0,0.0,0.0,0.0,0.0,0.0,0.0,0
-14.0,12.0,33.0,5.0,-1.0,10.0,16.0,2.0,0.0,0.0,0.0,0.0,0.0,0.0,0.0,0.0,0
8.0,40.0,35.0,2.0,-1.0,7.0,22.0,-3.0,0.0,0.0,0.0,0.0,0.0,0.0,0.0,0.0,0
-5.0,33.0,13.0,-17.0,-1.0,7.0,33.0,-14.0,0.0,0.0,0.0,0.0,0.0,0.0,0.0,0.0,0
-10.0,38.0,11.0,-36.0,-2.0,-1.0,33.0,-20.0,0.0,0.0,0.0,0.0,0.0,0.0,0.0,0.0,0
-8.0,41.0,8.0,-34.0,-2.0,-11.0,16.0,-21.0,0.0,0.0,0.0,0.0,0.0,0.0,0.0,0.0,0
-27.0,31.0,25.0,-7.0,-8.0,-12.0,15.0,-14.0,0.0,0.0,0.0,0.0,0.0,0.0,0.0,0.0,0
-34.0,-6.0,24.0,11.0,-4.0,-15.0,9.0,-15.0,0.0,0.0,0.0,0.0,0.0,0.0,0.0,0.0,0
-24.0,-31.0,10.0,13.0,1.0,-7.0,6.0,-6.0,0.0,0.0,0.0,0.0,0.0,0.0,0.0,0.0,0
2.0,-15.0,3.0,29.0,1.0,-5.0,-4.0,-4.0,0.0,0.0,0.0,0.0,0.0,0.0,0.0,0.0,0
16.0,-3.0,14.0,28.0,3.0,-1.0,-6.0,-5.0,0.0,0.0,0.0,0.0,0.0,0.0,0.0,0.0,0
8.0,-14.0,8.0,15.0,4.0,-6.0,-5.0,-5.0,0.0,0.0,0.0,0.0,0.0,0.0,0.0,0.0,0
3.0,-30.0,-14.0,-2.0,0.0,-7.0,-5.0,1.0,0.0,0.0,0.0,0.0,0.0,0.0,0.0,0.0,0
18.0,-31.0,-39.0,-19.0,-7.0,-11.0,-30.0,14.0,0.0,0.0,0.0,0.0,0.0,0.0,0.0,0.0,0
29.0,-17.0,-34.0,-17.0,-6.0,-5.0,-43.0,10.0,0.0,0.0,0.0,0.0,0.0,0.0,0.0,0.0,0
25.0,-2.0,-23.0,-19.0,-9.0,1.0,-28.0,4.0,0.0,0.0,0.0,0.0,0.0,0.0,0.0,0.0,0
30.0,-2.0,-50.0,-30.0,-15.0,4.0,-31.0,10.0,0.0,0.0,0.0,0.0,0.0,0.0,0.0,0.0,0
22.0,-3.0,-57.0,-22.0,-9.0,-3.0,-25.0,14.0,0.0,0.0,0.0,0.0,0.0,0.0,0.0,0.0,0
8.0,10.0,-40.0,-11.0,-8.0,-6.0,-14.0,8.0,0.0,0.0,0.0,0.0,0.0,0.0,0.0,0.0,0
3.0,23.0,-17.0,4.0,0.0,1.0,-10.0,10.0,0.0,0.0,0.0,0.0,0.0,0.0,0.0,0.0,0
-6.0,29.0,25.0,13.0,11.0,6.0,0.0,4.0,0.0,0.0,0.0,0.0,0.0,0.0,0.0,0.0,0
-44.0,-6.0,58.0,20.0,5.0,5.0,10.0,-1.0,0.0,0.0,0.0,0.0,0.0,0.0,0.0,0.0,0
-69.0,-23.0,56.0,22.0,-1.0,-5.0,19.0,-14.0,0.0,0.0,0.0,0.0,0.0,0.0,0.0,0.0,0
-70.0,-22.0,48.0,9.0,5.0,7.0,33.0,-18.0,0.0,0.0,0.0,0.0,0.0,0.0,0.0,0.0,0
-42.0,-7.0,51.0,15.0,9.0,14.0,36.0,-15.0,0.0,0.0,0.0,0.0,0.0,0.0,0.0,0.0,0
4.0,-3.0,37.0,11.0,9.0,5.0,25.0,-5.0,0.0,0.0,0.0,0.0,0.0,0.0,0.0,0.0,0
44.0,-11.0,-22.0,-25.0,-5.0,-2.0,21.0,-9.0,0.0,0.0,0.0,0.0,0.0,0.0,0.0,0.0,0
34.0,-2.0,-57.0,-37.0,-12.0,-8.0,19.0,-11.0,0.0,0.0,0.0,0.0,0.0,0.0,0.0,0.0,0
19.0,21.0,-37.0,-21.0,-11.0,-23.0,4.0,-11.0,0.0,0.0,0.0,0.0,0.0,0.0,0.0,0.0,0
11.0,36.0,-23.0,-15.0,-9.0,-21.0,-9.0,-8.0,0.0,0.0,0.0,0.0,0.0,0.0,0.0,0.0,0
-23.0,21.0,-4.0,-5.0,-7.0,-6.0,-14.0,-17.0,0.0,0.0,0.0,0.0,0.0,0.0,0.0,0.0,0
-37.0,-6.0,6.0,-6.0,-6.0,-8.0,-18.0,-8.0,0.0,0.0,0.0,0.0,0.0,0.0,0.0,0.0,0
-24.0,-9.0,12.0,2.0,-7.0,-12.0,-15.0,3.0,0.0,0.0,0.0,0.0,0.0,0.0,0.0,0.0,0
1.0,6.0,23.0,21.0,1.0,-6.0,-24.0,8.0,0.0,0.0,0.0,0.0,0.0,0.0,0.0,0.0,0
33.0,6.0,5.0,7.0,-1.0,5.0,-30.0,4.0,0.0,0.0,0.0,0.0,0.0,0.0,0.0,0.0,0
42.0,-23.0,-36.0,-8.0,-9.0,6.0,-27.0,3.0,0.0,0.0,0.0,0.0,0.0,0.0,0.0,0.0,0
57.0,-42.0,-82.0,-15.0,-6.0,-3.0,-30.0,9.0,0.0,0.0,0.0,0.0,0.0,0.0,0.0,0.0,0
43.0,-62.0,-100.0,-31.0,-12.0,-11.0,-30.0,13.0,0.0,0.0,0.0,0.0,0.0,0.0,0.0,0.0,0
-2.0,-59.0,-38.0,-8.0,-1.0,-1.0,-12.0,11.0,0.0,0.0,0.0,0.0,0.0,0.0,0.0,0.0,0
-23.0,-14.0,25.0,27.0,15.0,6.0,-9.0,17.0,0.0,0.0,0.0,0.0,0.0,0.0,0.0,0.0,0
-34.0,14.0,60.0,28.0,12.0,17.0,1.0,6.0,0.0,0.0,0.0,0.0,0.0,0.0,0.0,0.0,0
-32.0,33.0,58.0,19.0,5.0,14.0,14.0,-2.0,0.0,0.0,0.0,0.0,0.0,0.0,0.0,0.0,0
-31.0,29.0,59.0,10.0,-3.0,3.0,20.0,-10.0,0.0,0.0,0.0,0.0,0.0,0.0,0.0,0.0,0
-26.0,38.0,52.0,3.0,-3.0,2.0,32.0,-11.0,0.0,0.0,0.0,0.0,0.0,0.0,0.0,0.0,0
-19.0,49.0,29.0,-8.0,0.0,-1.0,31.0,-20.0,0.0,0.0,0.0,0.0,0.0,0.0,0.0,0.0,0
-11.0,31.0,-18.0,-22.0,-8.0,-8.0,21.0,-18.0,0.0,0.0,0.0,0.0,0.0,0.0,0.0,0.0,0
-6.0,-3.0,-45.0,-33.0,-17.0,-12.0,15.0,-18.0,0.0,0.0,0.0,0.0,0.0,0.0,0.0,0.0,0
-10.0,-17.0,-41.0,-40.0,-9.0,-12.0,14.0,-16.0,0.0,0.0,0.0,0.0,0.0,0.0,0.0,0.0,0
-12.0,-28.0,-32.0,-29.0,1.0,-11.0,8.0,-13.0,0.0,0.0,0.0,0.0,0.0,0.0,0.0,0.0,0
-2.0,-28.0,-7.0,-4.0,-4.0,-12.0,-4.0,-11.0,0.0,0.0,0.0,0.0,0.0,0.0,0.0,0.0,0
10.0,-8.0,25.0,16.0,0.0,-9.0,-12.0,-7.0,0.0,0.0,0.0,0.0,0.0,0.0,0.0,0.0,0
13.0,8.0,33.0,19.0,4.0,-8.0,-15.0,-1.0,0.0,0.0,0.0,0.0,0.0,0.0,0.0,0.0,0
11.0,10.0,19.0,18.0,7.0,0.0,-12.0,0.0,0.0,0.0,0.0,0.0,0.0,0.0,0.0,0.0,0
29.0,9.0,-3.0,15.0,1.0,-2.0,-27.0,8.0,0.0,0.0,0.0,0.0,0.0,0.0,0.0,0.0,0
25.0,-13.0,-27.0,7.0,-7.0,0.0,-30.0,17.0,0.0,0.0,0.0,0.0,0.0,0.0,0.0,0.0,0
12.0,-33.0,-53.0,-14.0,-17.0,-5.0,-20.0,8.0,0.0,0.0,0.0,0.0,0.0,0.0,0.0,0.0,0
8.0,-30.0,-55.0,-11.0,-14.0,-8.0,-25.0,5.0,0.0,0.0,0.0,0.0,0.0,0.0,0.0,0.0,0
9.0,-16.0,-15.0,5.0,1.0,-4.0,-29.0,9.0,0.0,0.0,0.0,0.0,0.0,0.0,0.0,0.0,0
10.0,-11.0,13.0,9.0,2.0,5.0,-23.0,10.0,0.0,0.0,0.0,0.0,0.0,0.0,0.0,0.0,0
6.0,-25.0,-16.0,-8.0,-2.0,7.0,-15.0,6.0,0.0,0.0,0.0,0.0,0.0,0.0,0.0,0.0,0
-14.0,-19.0,-24.0,-16.0,2.0,7.0,-3.0,-3.0,0.0,0.0,0.0,0.0,0.0,0.0,0.0,0.0,0
-14.0,20.0,32.0,1.0,1.0,9.0,17.0,-4.0,0.0,0.0,0.0,0.0,0.0,0.0,0.0,0.0,0
-21.0,45.0,48.0,10.0,4.0,3.0,22.0,-8.0,0.0,0.0,0.0,0.0,0.0,0.0,0.0,0.0,0
-50.0,27.0,17.0,-3.0,-4.0,-1.0,34.0,-10.0,0.0,0.0,0.0,0.0,0.0,0.0,0.0,0.0,0
-54.0,6.0,1.0,-13.0,-6.0,-3.0,39.0,-14.0,0.0,0.0,0.0,0.0,0.0,0.0,0.0,0.0,0
-34.0,4.0,-1.0,-16.0,-4.0,-8.0,20.0,-16.0,0.0,0.0,0.0,0.0,0.0,0.0,0.0,0.0,0
-16.0,3.0,18.0,-5.0,7.0,-4.0,16.0,-14.0,0.0,0.0,0.0,0.0,0.0,0.0,0.0,0.0,0
-11.0,-1.0,21.0,-4.0,5.0,-4.0,13.0,-15.0,0.0,0.0,0.0,0.0,0.0,0.0,0.0,0.0,0
1.0,-10.0,-4.0,-12.0,-9.0,-7.0,2.0,-15.0,0.0,0.0,0.0,0.0,0.0,0.0,0.0,0.0,0
21.0,-3.0,-22.0,-6.0,-5.0,-10.0,-6.0,-13.0,0.0,0.0,0.0,0.0,0.0,0.0,0.0,0.0,0
42.0,8.0,-12.0,-3.0,-6.0,-5.0,-8.0,-7.0,0.0,0.0,0.0,0.0,0.0,0.0,0.0,0.0,0
41.0,6.0,16.0,5.0,-6.0,-3.0,-5.0,2.0,0.0,0.0,0.0,0.0,0.0,0.0,0.0,0.0,0
1.0,5.0,20.0,15.0,1.0,-4.0,-8.0,6.0,0.0,0.0,0.0,0.0,0.0,0.0,0.0,0.0,0
3.0,-6.0,-12.0,3.0,2.0,-4.0,-29.0,7.0,0.0,0.0,0.0,0.0,0.0,0.0,0.0,0.0,0
23.0,-30.0,-59.0,-12.0,-7.0,-6.0,-37.0,15.0,0.0,0.0,0.0,0.0,0.0,0.0,0.0,0.0,0
4.0,-46.0,-42.0,1.0,-8.0,-1.0,-23.0,10.0,0.0,0.0,0.0,0.0,0.0,0.0,0.0,0.0,0
-6.0,-35.0,-9.0,-5.0,-2.0,-4.0,-27.0,6.0,0.0,0.0,0.0,0.0,0.0,0.0,0.0,0.0,0
2.0,-26.0,1.0,-13.0,-5.0,0.0,-36.0,5.0,0.0,0.0,0.0,0.0,0.0,0.0,0.0,0.0,0
20.0,-17.0,-23.0,-8.0,-3.0,-1.0,-19.0,2.0,0.0,0.0,0.0,0.0,0.0,0.0,0.0,0.0,0
29.0,5.0,-40.0,-2.0,2.0,-2.0,-6.0,8.0,0.0,0.0,0.0,0.0,0.0,0.0,0.0,0.0,0
2.0,24.0,-15.0,15.0,6.0,4.0,5.0,12.0,0.0,0.0,0.0,0.0,0.0,0.0,0.0,0.0,0
-56.0,20.0,18.0,13.0,5.0,3.0,12.0,-3.0,0.0,0.0,0.0,0.0,0.0,0.0,0.0,0.0,0
-60.0,24.0,27.0,6.0,-3.0,-4.0,17.0,-3.0,0.0,0.0,0.0,0.0,0.0,0.0,0.0,0.0,0
-68.0,18.0,41.0,-8.0,-4.0,4.0,30.0,-19.0,0.0,0.0,0.0,0.0,0.0,0.0,0.0,0.0,0
-48.0,6.0,33.0,-13.0,-2.0,5.0,39.0,-21.0,0.0,0.0,0.0,0.0,0.0,0.0,0.0,0.0,0
-3.0,12.0,35.0,-1.0,0.0,3.0,26.0,-11.0,0.0,0.0,0.0,0.0,0.0,0.0,0.0,0.0,0
20.0,16.0,28.0,-4.0,-3.0,0.0,12.0,-10.0,0.0,0.0,0.0,0.0,0.0,0.0,0.0,0.0,0
21.0,9.0,8.0,-8.0,-10.0,-13.0,10.0,-13.0,0.0,0.0,0.0,0.0,0.0,0.0,0.0,0.0,0
4.0,-26.0,-23.0,-19.0,-9.0,-11.0,7.0,-13.0,0.0,0.0,0.0,0.0,0.0,0.0,0.0,0.0,0
-22.0,-55.0,-39.0,-16.0,-3.0,-11.0,-10.0,-12.0,0.0,0.0,0.0,0.0,0.0,0.0,0.0,0.0,0
16.0,-39.0,-27.0,-7.0,1.0,-7.0,0.0,-10.0,0.0,0.0,0.0,0.0,0.0,0.0,0.0,0.0,0
50.0,0.0,-6.0,4.0,4.0,-10.0,0.0,0.0,0.0,0.0,0.0,0.0,0.0,0.0,0.0,0.0,0
26.0,26.0,-8.0,5.0,2.0,-9.0,-11.0,11.0,0.0,0.0,0.0,0.0,0.0,0.0,0.0,0.0,0
13.0,18.0,-28.0,-10.0,-3.0,-9.0,-34.0,13.0,0.0,0.0,0.0,0.0,0.0,0.0,0.0,0.0,0
21.0,17.0,-25.0,-5.0,-3.0,0.0,-35.0,9.0,0.0,0.0,0.0,0.0,0.0,0.0,0.0,0.0,0
14.0,32.0,2.0,6.0,-2.0,3.0,-28.0,0.0,0.0,0.0,0.0,0.0,0.0,0.0,0.0,0.0,0
9.0,19.0,11.0,8.0,-1.0,-1.0,-33.0,-1.0,0.0,0.0,0.0,0.0,0.0,0.0,0.0,0.0,0
9.0,-12.0,5.0,3.0,-10.0,2.0,-32.0,8.0,0.0,0.0,0.0,0.0,0.0,0.0,0.0,0.0,0
-12.0,-38.0,1.0,3.0,-9.0,-1.0,-21.0,7.0,0.0,0.0,0.0,0.0,0.0,0.0,0.0,0.0,0
-23.0,-38.0,10.0,13.0,-2.0,-7.0,-20.0,0.0,0.0,0.0,0.0,0.0,0.0,0.0,0.0,0.0,0
-25.0,-25.0,18.0,13.0,2.0,-1.0,-4.0,-1.0,0.0,0.0,0.0,0.0,0.0,0.0,0.0,0.0,0
-24.0,-32.0,-21.0,-11.0,-2.0,12.0,15.0,-1.0,0.0,0.0,0.0,0.0,0.0,0.0,0.0,0.0,0
-47.0,-55.0,-60.0,-30.0,0.0,16.0,30.0,4.0,0.0,0.0,0.0,0.0,0.0,0.0,0.0,0.0,0
-62.0,-41.0,-37.0,-20.0,3.0,14.0,43.0,-1.0,0.0,0.0,0.0,0.0,0.0,0.0,0.0,0.0,0
-38.0,9.0,-5.0,-11.0,-4.0,6.0,48.0,-7.0,0.0,0.0,0.0,0.0,0.0,0.0,0.0,0.0,0
4.0,63.0,22.0,-4.0,3.0,-7.0,27.0,-13.0,0.0,0.0,0.0,0.0,0.0,0.0,0.0,0.0,0
27.0,89.0,55.0,9.0,6.0,-14.0,11.0,-21.0,0.0,0.0,0.0,0.0,0.0,0.0,0.0,0.0,0
25.0,62.0,60.0,17.0,4.0,-8.0,1.0,-20.0,0.0,0.0,0.0,0.0,0.0,0.0,0.0,0.0,0
32.0,36.0,51.0,10.0,-3.0,-13.0,-6.0,-18.0,0.0,0.0,0.0,0.0,0.0,0.0,0.0,0.0,0
25.0,7.0,14.0,-2.0,-10.0,-15.0,-8.0,-12.0,0.0,0.0,0.0,0.0,0.0,0.0,0.0,0.0,0
16.0,-21.0,-9.0,-11.0,-12.0,-8.0,-12.0,-8.0,0.0,0.0,0.0,0.0,0.0,0.0,0.0,0.0,0
-4.0,-34.0,-18.0,-5.0,-4.0,-8.0,-13.0,-6.0,0.0,0.0,0.0,0.0,0.0,0.0,0.0,0.0,0
-22.0,-45.0,-29.0,-7.0,-3.0,-8.0,-13.0,1.0,0.0,0.0,0.0,0.0,0.0,0.0,0.0,0.0,0
-17.0,-47.0,-33.0,0.0,-7.0,-1.0,-24.0,9.0,0.0,0.0,0.0,0.0,0.0,0.0,0.0,0.0,0
-11.0,-26.0,-22.0,6.0,-6.0,-2.0,-21.0,13.0,0.0,0.0,0.0,0.0,0.0,0.0,0.0,0.0,0
5.0,-9.0,-25.0,-3.0,-5.0,2.0,-20.0,5.0,0.0,0.0,0.0,0.0,0.0,0.0,0.0,0.0,0
19.0,-14.0,-39.0,-10.0,0.0,-3.0,-28.0,13.0,0.0,0.0,0.0,0.0,0.0,0.0,0.0,0.0,0
40.0,-13.0,-55.0,-10.0,1.0,0.0,-28.0,16.0,0.0,0.0,0.0,0.0,0.0,0.0,0.0,0.0,0
27.0,-4.0,-37.0,-12.0,-3.0,2.0,-25.0,9.0,0.0,0.0,0.0,0.0,0.0,0.0,0.0,0.0,0
7.0,12.0,-5.0,-10.0,-3.0,5.0,-21.0,6.0,0.0,0.0,0.0,0.0,0.0,0.0,0.0,0.0,0
-19.0,20.0,27.0,10.0,-1.0,8.0,-3.0,-2.0,0.0,0.0,0.0,0.0,0.0,0.0,0.0,0.0,0
-46.0,14.0,43.0,19.0,1.0,7.0,13.0,-6.0,0.0,0.0,0.0,0.0,0.0,0.0,0.0,0.0,0
-20.0,1.0,47.0,10.0,2.0,1.0,31.0,-7.0,0.0,0.0,0.0,0.0,0.0,0.0,0.0,0.0,0
-15.0,8.0,43.0,15.0,11.0,2.0,41.0,-18.0,0.0,0.0,0.0,0.0,0.0,0.0,0.0,0.0,0
-15.0,19.0,30.0,4.0,-2.0,-1.0,36.0,-12.0,0.0,0.0,0.0,0.0,0.0,0.0,0.0,0.0,0
-15.0,4.0,10.0,-6.0,-10.0,-5.0,20.0,-13.0,0.0,0.0,0.0,0.0,0.0,0.0,0.0,0.0,0
-11.0,1.0,2.0,-18.0,-9.0,-6.0,11.0,-18.0,0.0,0.0,0.0,0.0,0.0,0.0,0.0,0.0,0
-2.0,-9.0,-11.0,-20.0,-8.0,-11.0,9.0,-12.0,0.0,0.0,0.0,0.0,0.0,0.0,0.0,0.0,0
17.0,-14.0,-19.0,-22.0,-10.0,-7.0,8.0,-15.0,0.0,0.0,0.0,0.0,0.0,0.0,0.0,0.0,0
1.0,-10.0,-19.0,-17.0,-5.0,-6.0,1.0,-6.0,0.0,0.0,0.0,0.0,0.0,0.0,0.0,0.0,0
-38.0,-2.0,-10.0,-2.0,1.0,-7.0,-1.0,-1.0,0.0,0.0,0.0,0.0,0.0,0.0,0.0,0.0,0
-31.0,2.0,4.0,8.0,3.0,-6.0,-10.0,0.0,0.0,0.0,0.0,0.0,0.0,0.0,0.0,0.0,0
5.0,-2.0,6.0,11.0,1.0,-4.0,-17.0,4.0,0.0,0.0,0.0,0.0,0.0,0.0,0.0,0.0,0
32.0,-12.0,-10.0,8.0,-5.0,-8.0,-36.0,12.0,0.0,0.0,0.0,0.0,0.0,0.0,0.0,0.0,0
40.0,-19.0,-27.0,2.0,-2.0,-3.0,-37.0,7.0,0.0,0.0,0.0,0.0,0.0,0.0,0.0,0.0,0
21.0,-14.0,-24.0,-2.0,-3.0,1.0,-24.0,1.0,0.0,0.0,0.0,0.0,0.0,0.0,0.0,0.0,0
19.0,0.0,-20.0,-6.0,-2.0,-8.0,-27.0,5.0,0.0,0.0,0.0,0.0,0.0,0.0,0.0,0.0,0
23.0,4.0,-21.0,-12.0,-11.0,-5.0,-37.0,9.0,0.0,0.0,0.0,0.0,0.0,0.0,0.0,0.0,0
5.0,-13.0,-26.0,-7.0,-7.0,1.0,-27.0,7.0,0.0,0.0,0.0,0.0,0.0,0.0,0.0,0.0,0
0.0,-20.0,-16.0,1.0,-5.0,3.0,-18.0,9.0,0.0,0.0,0.0,0.0,0.0,0.0,0.0,0.0,0
-3.0,-19.0,-8.0,4.0,0.0,3.0,8.0,6.0,0.0,0.0,0.0,0.0,0.0,0.0,0.0,0.0,0
-11.0,-17.0,7.0,7.0,5.0,7.0,22.0,-2.0,0.0,0.0,0.0,0.0,0.0,0.0,0.0,0.0,0
-26.0,-7.0,23.0,3.0,3.0,5.0,25.0,-11.0,0.0,0.0,0.0,0.0,0.0,0.0,0.0,0.0,0
-45.0,7.0,40.0,-2.0,3.0,2.0,37.0,-11.0,0.0,0.0,0.0,0.0,0.0,0.0,0.0,0.0,0
-45.0,34.0,40.0,-5.0,3.0,5.0,33.0,-16.0,0.0,0.0,0.0,0.0,0.0,0.0,0.0,0.0,0
-22.0,31.0,20.0,-10.0,-4.0,-5.0,21.0,-14.0,0.0,0.0,0.0,0.0,0.0,0.0,0.0,0.0,0
-20.0,29.0,6.0,-12.0,0.0,-3.0,18.0,-18.0,0.0,0.0,0.0,0.0,0.0,0.0,0.0,0.0,0
-8.0,39.0,18.0,-11.0,-6.0,0.0,11.0,-10.0,0.0,0.0,0.0,0.0,0.0,0.0,0.0,0.0,0
9.0,34.0,28.0,6.0,-3.0,-6.0,7.0,-9.0,0.0,0.0,0.0,0.0,0.0,0.0,0.0,0.0,0
8.0,-1.0,3.0,2.0,-4.0,-12.0,-1.0,-7.0,0.0,0.0,0.0,0.0,0.0,0.0,0.0,0.0,0
19.0,-20.0,-31.0,-11.0,-3.0,-7.0,-6.0,-9.0,0.0,0.0,0.0,0.0,0.0,0.0,0.0,0.0,0
25.0,-33.0,-42.0,-12.0,-2.0,-8.0,-15.0,-8.0,0.0,0.0,0.0,0.0,0.0,0.0,0.0,0.0,0
12.0,-57.0,-49.0,-10.0,-8.0,-11.0,-19.0,-1.0,0.0,0.0,0.0,0.0,0.0,0.0,0.0,0.0,0
2.0,-61.0,-52.0,-9.0,-6.0,-8.0,-33.0,10.0,0.0,0.0,0.0,0.0,0.0,0.0,0.0,0.0,0
-1.0,-21.0,-17.0,3.0,0.0,0.0,-35.0,11.0,0.0,0.0,0.0,0.0,0.0,0.0,0.0,0.0,0
-11.0,-3.0,22.0,6.0,-5.0,0.0,-18.0,7.0,0.0,0.0,0.0,0.0,0.0,0.0,0.0,0.0,0
-10.0,2.0,18.0,1.0,-1.0,-4.0,-24.0,8.0,0.0,0.0,0.0,0.0,0.0,0.0,0.0,0.0,0
6.0,-4.0,6.0,5.0,0.0,-8.0,-39.0,11.0,0.0,0.0,0.0,0.0,0.0,0.0,0.0,0.0,0
9.0,-24.0,2.0,7.0,-6.0,4.0,-21.0,17.0,0.0,0.0,0.0,0.0,0.0,0.0,0.0,0.0,0
25.0,-10.0,-3.0,0.0,0.0,12.0,-15.0,20.0,0.0,0.0,0.0,0.0,0.0,0.0,0.0,0.0,0
18.0,28.0,8.0,3.0,4.0,14.0,-2.0,5.0,0.0,0.0,0.0,0.0,0.0,0.0,0.0,0.0,0
-7.0,44.0,-11.0,-12.0,0.0,0.0,16.0,-12.0,0.0,0.0,0.0,0.0,0.0,0.0,0.0,0.0,0
-25.0,26.0,-50.0,-27.0,-6.0,0.0,26.0,-18.0,0.0,0.0,0.0,0.0,0.0,0.0,0.0,0.0,0
-28.0,9.0,-34.0,-18.0,-8.0,3.0,36.0,-25.0,0.0,0.0,0.0,0.0,0.0,0.0,0.0,0.0,0
-16.0,8.0,8.0,12.0,9.0,9.0,37.0,-22.0,0.0,0.0,0.0,0.0,0.0,0.0,0.0,0.0,0
-8.0,19.0,50.0,31.0,11.0,-1.0,24.0,-10.0,0.0,0.0,0.0,0.0,0.0,0.0,0.0,0.0,0
-9.0,20.0,91.0,25.0,9.0,-5.0,18.0,-5.0,0.0,0.0,0.0,0.0,0.0,0.0,0.0,0.0,0
-41.0,-16.0,63.0,-15.0,-11.0,-10.0,14.0,-20.0,0.0,0.0,0.0,0.0,0.0,0.0,0.0,0.0,0
-53.0,-42.0,9.0,-26.0,-13.0,-14.0,10.0,-15.0,0.0,0.0,0.0,0.0,0.0,0.0,0.0,0.0,0
-21.0,-29.0,-14.0,-16.0,-5.0,-10.0,0.0,0.0,0.0,0.0,0.0,0.0,0.0,0.0,0.0,0.0,0
27.0,10.0,-5.0,11.0,2.0,-6.0,-8.0,6.0,0.0,0.0,0.0,0.0,0.0,0.0,0.0,0.0,0
24.0,6.0,-16.0,3.0,-1.0,-2.0,-6.0,2.0,0.0,0.0,0.0,0.0,0.0,0.0,0.0,0.0,0
18.0,-28.0,-67.0,-34.0,-9.0,-4.0,-21.0,-9.0,0.0,0.0,0.0,0.0,0.0,0.0,0.0,0.0,0
40.0,-19.0,-95.0,-41.0,-16.0,-8.0,-39.0,-1.0,0.0,0.0,0.0,0.0,0.0,0.0,0.0,0.0,0
50.0,20.0,-69.0,-13.0,-10.0,-6.0,-38.0,0.0,0.0,0.0,0.0,0.0,0.0,0.0,0.0,0.0,0
30.0,10.0,-23.0,1.0,-4.0,-5.0,-21.0,2.0,0.0,0.0,0.0,0.0,0.0,0.0,0.0,0.0,0
-7.0,-33.0,3.0,14.0,1.0,-4.0,-23.0,11.0,0.0,0.0,0.0,0.0,0.0,0.0,0.0,0.0,0
-46.0,-56.0,18.0,28.0,0.0,1.0,-22.0,15.0,0.0,0.0,0.0,0.0,0.0,0.0,0.0,0.0,0
-36.0,-17.0,62.0,45.0,10.0,11.0,-8.0,15.0,0.0,0.0,0.0,0.0,0.0,0.0,0.0,0.0,0
12.0,33.0,75.0,39.0,17.0,8.0,-7.0,11.0,0.0,0.0,0.0,0.0,0.0,0.0,0.0,0.0,0
27.0,44.0,51.0,14.0,4.0,2.0,-5.0,2.0,0.0,0.0,0.0,0.0,0.0,0.0,0.0,0.0,0
4.0,3.0,-3.0,-12.0,-6.0,-4.0,5.0,-7.0,0.0,0.0,0.0,0.0,0.0,0.0,0.0,0.0,0
-16.0,-27.0,-63.0,-35.0,-5.0,2.0,21.0,-17.0,0.0,0.0,0.0,0.0,0.0,0.0,0.0,0.0,0
-25.0,-5.0,-59.0,-48.0,-5.0,5.0,33.0,-19.0,0.0,0.0,0.0,0.0,0.0,0.0,0.0,0.0,0
-37.0,24.0,-16.0,-44.0,-17.0,2.0,34.0,-14.0,0.0,0.0,0.0,0.0,0.0,0.0,0.0,0.0,0
-33.0,15.0,1.0,-30.0,-9.0,-7.0,26.0,-16.0,0.0,0.0,0.0,0.0,0.0,0.0,0.0,0.0,0
-31.0,-3.0,10.0,-12.0,-2.0,-4.0,16.0,-11.0,0.0,0.0,0.0,0.0,0.0,0.0,0.0,0.0,0
-24.0,4.0,37.0,13.0,7.0,-9.0,12.0,-10.0,0.0,0.0,0.0,0.0,0.0,0.0,0.0,0.0,0
-5.0,15.0,47.0,28.0,7.0,-10.0,13.0,-10.0,0.0,0.0,0.0,0.0,0.0,0.0,0.0,0.0,0
14.0,2.0,11.0,15.0,-5.0,-5.0,-7.0,-12.0,0.0,0.0,0.0,0.0,0.0,0.0,0.0,0.0,0
14.0,-18.0,-13.0,-4.0,-3.0,-3.0,-11.0,-4.0,0.0,0.0,0.0,0.0,0.0,0.0,0.0,0.0,0
16.0,-17.0,-12.0,-1.0,-2.0,-4.0,-10.0,-4.0,0.0,0.0,0.0,0.0,0.0,0.0,0.0,0.0,0
27.0,-10.0,-1.0,3.0,-5.0,-8.0,-14.0,-1.0,0.0,0.0,0.0,0.0,0.0,0.0,0.0,0.0,0
28.0,-13.0,-12.0,1.0,-6.0,-8.0,-31.0,10.0,0.0,0.0,0.0,0.0,0.0,0.0,0.0,0.0,0
16.0,-21.0,-26.0,2.0,-2.0,-1.0,-33.0,16.0,0.0,0.0,0.0,0.0,0.0,0.0,0.0,0.0,0
-6.0,-33.0,-41.0,-2.0,-3.0,-1.0,-23.0,9.0,0.0,0.0,0.0,0.0,0.0,0.0,0.0,0.0,0
0.0,-18.0,-35.0,-10.0,4.0,1.0,-31.0,1.0,0.0,0.0,0.0,0.0,0.0,0.0,0.0,0.0,0
29.0,8.0,-19.0,-5.0,1.0,-3.0,-35.0,3.0,0.0,0.0,0.0,0.0,0.0,0.0,0.0,0.0,0
37.0,17.0,-2.0,-2.0,-8.0,-1.0,-23.0,8.0,0.0,0.0,0.0,0.0,0.0,0.0,0.0,0.0,0
-3.0,5.0,-1.0,3.0,-11.0,-1.0,-16.0,10.0,0.0,0.0,0.0,0.0,0.0,0.0,0.0,0.0,0
-36.0,5.0,3.0,5.0,1.0,-3.0,7.0,4.0,0.0,0.0,0.0,0.0,0.0,0.0,0.0,0.0,0
-33.0,17.0,13.0,5.0,3.0,12.0,18.0,1.0,0.0,0.0,0.0,0.0,0.0,0.0,0.0,0.0,0
-23.0,15.0,19.0,7.0,-2.0,9.0,17.0,0.0,0.0,0.0,0.0,0.0,0.0,0.0,0.0,0.0,0
-35.0,9.0,24.0,-1.0,4.0,9.0,37.0,-14.0,0.0,0.0,0.0,0.0,0.0,0.0,0.0,0.0,0
-21.0,10.0,34.0,-5.0,0.0,4.0,43.0,-21.0,0.0,0.0,0.0,0.0,0.0,0.0,0.0,0.0,0
1.0,7.0,25.0,4.0,-1.0,0.0,27.0,-10.0,0.0,0.0,0.0,0.0,0.0,0.0,0.0,0.0,0
3.0,-9.0,-4.0,-26.0,-5.0,-4.0,15.0,-12.0,0.0,0.0,0.0,0.0,0.0,0.0,0.0,0.0,0
-2.0,-34.0,-20.0,-40.0,-13.0,-15.0,11.0,-20.0,0.0,0.0,0.0,0.0,0.0,0.0,0.0,0.0,0
-35.0,-54.0,-8.0,-16.0,-10.0,-12.0,1.0,-15.0,0.0,0.0,0.0,0.0,0.0,0.0,0.0,0.0,0
-41.0,-33.0,-4.0,-8.0,-5.0,-5.0,-4.0,-4.0,0.0,0.0,0.0,0.0,0.0,0.0,0.0,0.0,0
-20.0,-3.0,-10.0,-9.0,3.0,-11.0,-4.0,0.0,0.0,0.0,0.0,0.0,0.0,0.0,0.0,0.0,0
1.0,20.0,-6.0,-2.0,4.0,-8.0,-6.0,-1.0,0.0,0.0,0.0,0.0,0.0,0.0,0.0,0.0,0
6.0,11.0,-11.0,6.0,-3.0,-9.0,-20.0,-4.0,0.0,0.0,0.0,0.0,0.0,0.0,0.0,0.0,0
28.0,-12.0,-40.0,5.0,-6.0,-7.0,-39.0,5.0,0.0,0.0,0.0,0.0,0.0,0.0,0.0,0.0,0
42.0,-1.0,-39.0,8.0,-5.0,-7.0,-34.0,6.0,0.0,0.0,0.0,0.0,0.0,0.0,0.0,0.0,0
48.0,24.0,-4.0,9.0,-1.0,4.0,-25.0,-2.0,0.0,0.0,0.0,0.0,0.0,0.0,0.0,0.0,0
63.0,27.0,10.0,18.0,-4.0,0.0,-28.0,4.0,0.0,0.0,0.0,0.0,0.0,0.0,0.0,0.0,0
72.0,13.0,14.0,21.0,-2.0,0.0,-29.0,15.0,0.0,0.0,0.0,0.0,0.0,0.0,0.0,0.0,0
54.0,11.0,13.0,10.0,-2.0,3.0,-22.0,11.0,0.0,0.0,0.0,0.0,0.0,0.0,0.0,0.0,0
-4.0,-6.0,6.0,1.0,3.0,8.0,-9.0,13.0,0.0,0.0,0.0,0.0,0.0,0.0,0.0,0.0,0
-77.0,-25.0,-5.0,0.0,1.0,9.0,6.0,12.0,0.0,0.0,0.0,0.0,0.0,0.0,0.0,0.0,0
-123.0,-47.0,-42.0,-15.0,-7.0,3.0,16.0,-4.0,0.0,0.0,0.0,0.0,0.0,0.0,0.0,0.0,0
-116.0,-58.0,-57.0,-46.0,-10.0,-1.0,22.0,-12.0,0.0,0.0,0.0,0.0,0.0,0.0,0.0,0.0,0
-57.0,-12.0,0.0,-26.0,-4.0,3.0,33.0,-16.0,0.0,0.0,0.0,0.0,0.0,0.0,0.0,0.0,0
12.0,21.0,47.0,-2.0,1.0,2.0,38.0,-21.0,0.0,0.0,0.0,0.0,0.0,0.0,0.0,0.0,0
45.0,27.0,49.0,8.0,3.0,-10.0,23.0,-20.0,0.0,0.0,0.0,0.0,0.0,0.0,0.0,0.0,0
25.0,31.0,49.0,22.0,0.0,-10.0,16.0,-16.0,0.0,0.0,0.0,0.0,0.0,0.0,0.0,0.0,0
11.0,8.0,30.0,16.0,-1.0,-5.0,17.0,-11.0,0.0,0.0,0.0,0.0,0.0,0.0,0.0,0.0,0
5.0,-17.0,1.0,2.0,-2.0,-6.0,0.0,-7.0,0.0,0.0,0.0,0.0,0.0,0.0,0.0,0.0,0
11.0,-16.0,-25.0,-6.0,-2.0,-10.0,-12.0,-12.0,0.0,0.0,0.0,0.0,0.0,0.0,0.0,0.0,0
23.0,15.0,-27.0,-13.0,-10.0,-8.0,-10.0,-5.0,0.0,0.0,0.0,0.0,0.0,0.0,0.0,0.0,0
16.0,63.0,0.0,-7.0,-7.0,-3.0,-5.0,2.0,0.0,0.0,0.0,0.0,0.0,0.0,0.0,0.0,0
-1.0,62.0,3.0,-15.0,-4.0,0.0,-11.0,-5.0,0.0,0.0,0.0,0.0,0.0,0.0,0.0,0.0,0
7.0,1.0,-33.0,-20.0,-5.0,0.0,-24.0,5.0,0.0,0.0,0.0,0.0,0.0,0.0,0.0,0.0,0
14.0,-43.0,-41.0,-11.0,-9.0,0.0,-32.0,14.0,0.0,0.0,0.0,0.0,0.0,0.0,0.0,0.0,0
-1.0,-68.0,-17.0,11.0,-2.0,-1.0,-25.0,8.0,0.0,0.0,0.0,0.0,0.0,0.0,0.0,0.0,0
-14.0,-69.0,-27.0,-12.0,-9.0,-11.0,-34.0,4.0,0.0,0.0,0.0,0.0,0.0,0.0,0.0,0.0,0
-11.0,-62.0,-17.0,-6.0,-12.0,-10.0,-32.0,9.0,0.0,0.0,0.0,0.0,0.0,0.0,0.0,0.0,0
-11.0,-41.0,0.0,9.0,1.0,2.0,-16.0,10.0,0.0,0.0,0.0,0.0,0.0,0.0,0.0,0.0,0
-31.0,-33.0,-24.0,0.0,5.0,8.0,-14.0,3.0,0.0,0.0,0.0,0.0,0.0,0.0,0.0,0.0,0
-20.0,-5.0,-34.0,-13.0,3.0,13.0,-3.0,6.0,0.0,0.0,0.0,0.0,0.0,0.0,0.0,0.0,0
21.0,66.0,2.0,1.0,7.0,8.0,26.0,4.0,0.0,0.0,0.0,0.0,0.0,0.0,0.0,0.0,0
59.0,112.0,41.0,11.0,10.0,0.0,31.0,-2.0,0.0,0.0,0.0,0.0,0.0,0.0,0.0,0.0,0
37.0,96.0,61.0,17.0,-1.0,-1.0,40.0,-7.0,0.0,0.0,0.0,0.0,0.0,0.0,0.0,0.0,0
-31.0,32.0,46.0,6.0,0.0,-2.0,32.0,-23.0,0.0,0.0,0.0,0.0,0.0,0.0,0.0,0.0,0
-47.0,-24.0,18.0,-4.0,0.0,-2.0,15.0,-25.0,0.0,0.0,0.0,0.0,0.0,0.0,0.0,0.0,0
-45.0,-54.0,12.0,-5.0,-6.0,-6.0,15.0,-17.0,0.0,0.0,0.0,0.0,0.0,0.0,0.0,0.0,0
-41.0,-51.0,22.0,2.0,-8.0,-10.0,12.0,-13.0,0.0,0.0,0.0,0.0,0.0,0.0,0.0,0.0,0
-43.0,-36.0,24.0,0.0,-6.0,-8.0,3.0,-6.0,0.0,0.0,0.0,0.0,0.0,0.0,0.0,0.0,0
-39.0,-18.0,-3.0,-15.0,-9.0,-10.0,-11.0,-6.0,0.0,0.0,0.0,0.0,0.0,0.0,0.0,0.0,0
-28.0,-16.0,-35.0,-35.0,-14.0,-5.0,-13.0,-6.0,0.0,0.0,0.0,0.0,0.0,0.0,0.0,0.0,0
20.0,4.0,-45.0,-33.0,-11.0,-11.0,-4.0,-9.0,0.0,0.0,0.0,0.0,0.0,0.0,0.0,0.0,0
76.0,44.0,-27.0,-12.0,-6.0,-4.0,-4.0,4.0,0.0,0.0,0.0,0.0,0.0,0.0,0.0,0.0,0
87.0,27.0,-34.0,-3.0,4.0,1.0,-23.0,17.0,0.0,0.0,0.0,0.0,0.0,0.0,0.0,0.0,0
47.0,3.0,-35.0,10.0,11.0,-1.0,-28.0,15.0,0.0,0.0,0.0,0.0,0.0,0.0,0.0,0.0,0
-3.0,-27.0,-21.0,17.0,8.0,-2.0,-26.0,4.0,0.0,0.0,0.0,0.0,0.0,0.0,0.0,0.0,0
-24.0,-48.0,-7.0,24.0,6.0,-6.0,-34.0,8.0,0.0,0.0,0.0,0.0,0.0,0.0,0.0,0.0,0
-14.0,-36.0,23.0,34.0,8.0,1.0,-36.0,10.0,0.0,0.0,0.0,0.0,0.0,0.0,0.0,0.0,0
4.0,-13.0,54.0,33.0,0.0,5.0,-28.0,8.0,0.0,0.0,0.0,0.0,0.0,0.0,0.0,0.0,0
7.0,-14.0,2.0,-6.0,-17.0,1.0,-14.0,1.0,0.0,0.0,0.0,0.0,0.0,0.0,0.0,0.0,0
12.0,-8.0,-60.0,-52.0,-19.0,-4.0,0.0,3.0,0.0,0.0,0.0,0.0,0.0,0.0,0.0,0.0,0
-12.0,16.0,-46.0,-45.0,-12.0,-2.0,13.0,-5.0,0.0,0.0,0.0,0.0,0.0,0.0,0.0,0.0,0
-25.0,39.0,5.0,-11.0,-2.0,4.0,25.0,-7.0,0.0,0.0,0.0,0.0,0.0,0.0,0.0,0.0,0
-45.0,36.0,37.0,6.0,7.0,4.0,43.0,-5.0,0.0,0.0,0.0,0.0,0.0,0.0,0.0,0.0,0
-57.0,27.0,49.0,13.0,10.0,7.0,47.0,-17.0,0.0,0.0,0.0,0.0,0.0,0.0,0.0,0.0,0
-49.0,1.0,41.0,7.0,3.0,-2.0,24.0,-17.0,0.0,0.0,0.0,0.0,0.0,0.0,0.0,0.0,0
-32.0,-21.0,32.0,8.0,-7.0,-1.0,14.0,-17.0,0.0,0.0,0.0,0.0,0.0,0.0,0.0,0.0,0
-6.0,-32.0,10.0,0.0,-9.0,-1.0,12.0,-11.0,0.0,0.0,0.0,0.0,0.0,0.0,0.0,0.0,0
23.0,-27.0,-24.0,-26.0,-13.0,-9.0,2.0,-17.0,0.0,0.0,0.0,0.0,0.0,0.0,0.0,0.0,0
53.0,13.0,-30.0,-26.0,-11.0,-18.0,-8.0,-10.0,0.0,0.0,0.0,0.0,0.0,0.0,0.0,0.0,0
45.0,30.0,-2.0,-3.0,-1.0,-15.0,-10.0,-3.0,0.0,0.0,0.0,0.0,0.0,0.0,0.0,0.0,0
-5.0,10.0,13.0,15.0,9.0,0.0,-7.0,-1.0,0.0,0.0,0.0,0.0,0.0,0.0,0.0,0.0,0
-40.0,-5.0,0.0,11.0,4.0,-2.0,-11.0,3.0,0.0,0.0,0.0,0.0,0.0,0.0,0.0,0.0,0
-12.0,-8.0,-33.0,-9.0,-7.0,-4.0,-31.0,13.0,0.0,0.0,0.0,0.0,0.0,0.0,0.0,0.0,0
16.0,-11.0,-35.0,-7.0,-8.0,-1.0,-32.0,9.0,0.0,0.0,0.0,0.0,0.0,0.0,0.0,0.0,0
25.0,-27.0,-22.0,-5.0,-5.0,1.0,-22.0,3.0,0.0,0.0,0.0,0.0,0.0,0.0,0.0,0.0,0
40.0,-29.0,-25.0,1.0,-4.0,-3.0,-31.0,6.0,0.0,0.0,0.0,0.0,0.0,0.0,0.0,0.0,0
38.0,-19.0,-35.0,1.0,-3.0,-7.0,-34.0,12.0,0.0,0.0,0.0,0.0,0.0,0.0,0.0,0.0,0
7.0,-14.0,-25.0,-3.0,-2.0,2.0,-23.0,12.0,0.0,0.0,0.0,0.0,0.0,0.0,0.0,0.0,0
-8.0,-5.0,-11.0,-4.0,-3.0,0.0,-7.0,7.0,0.0,0.0,0.0,0.0,0.0,0.0,0.0,0.0,0
-18.0,1.0,8.0,3.0,-1.0,2.0,0.0,2.0,0.0,0.0,0.0,0.0,0.0,0.0,0.0,0.0,0
-23.0,9.0,25.0,7.0,2.0,2.0,11.0,-2.0,0.0,0.0,0.0,0.0,0.0,0.0,0.0,0.0,0
-30.0,17.0,34.0,10.0,5.0,7.0,22.0,-7.0,0.0,0.0,0.0,0.0,0.0,0.0,0.0,0.0,0
-46.0,17.0,39.0,7.0,0.0,4.0,32.0,-10.0,0.0,0.0,0.0,0.0,0.0,0.0,0.0,0.0,0
-37.0,19.0,34.0,-4.0,-6.0,2.0,37.0,-19.0,0.0,0.0,0.0,0.0,0.0,0.0,0.0,0.0,0
-12.0,1.0,20.0,-9.0,6.0,0.0,24.0,-20.0,0.0,0.0,0.0,0.0,0.0,0.0,0.0,0.0,0
-10.0,-1.0,22.0,0.0,9.0,0.0,20.0,-12.0,0.0,0.0,0.0,0.0,0.0,0.0,0.0,0.0,0
-4.0,8.0,10.0,0.0,4.0,-8.0,19.0,-7.0,0.0,0.0,0.0,0.0,0.0,0.0,0.0,0.0,0
-3.0,5.0,-7.0,-9.0,-6.0,-9.0,12.0,-1.0,0.0,0.0,0.0,0.0,0.0,0.0,0.0,0.0,0
8.0,7.0,0.0,-9.0,-14.0,-9.0,1.0,-1.0,0.0,0.0,0.0,0.0,0.0,0.0,0.0,0.0,0
-3.0,-14.0,-16.0,-20.0,-13.0,-10.0,-10.0,-13.0,0.0,0.0,0.0,0.0,0.0,0.0,0.0,0.0,0
0.0,-23.0,-47.0,-25.0,-10.0,-12.0,-18.0,-18.0,0.0,0.0,0.0,0.0,0.0,0.0,0.0,0.0,0
16.0,-18.0,-36.0,-11.0,-4.0,-9.0,-22.0,-3.0,0.0,0.0,0.0,0.0,0.0,0.0,0.0,0.0,0
17.0,-20.0,-28.0,-3.0,-1.0,-5.0,-33.0,16.0,0.0,0.0,0.0,0.0,0.0,0.0,0.0,0.0,0
9.0,-21.0,-35.0,6.0,-3.0,-1.0,-27.0,14.0,0.0,0.0,0.0,0.0,0.0,0.0,0.0,0.0,0
17.0,-16.0,-24.0,0.0,3.0,-1.0,-22.0,7.0,0.0,0.0,0.0,0.0,0.0,0.0,0.0,0.0,0
30.0,-1.0,-7.0,2.0,-3.0,-7.0,-28.0,5.0,0.0,0.0,0.0,0.0,0.0,0.0,0.0,0.0,0
34.0,19.0,15.0,18.0,4.0,10.0,-27.0,8.0,0.0,0.0,0.0,0.0,0.0,0.0,0.0,0.0,0
7.0,19.0,29.0,19.0,5.0,7.0,-22.0,10.0,0.0,0.0,0.0,0.0,0.0,0.0,0.0,0.0,0
-11.0,9.0,22.0,12.0,-5.0,-3.0,-13.0,14.0,0.0,0.0,0.0,0.0,0.0,0.0,0.0,0.0,0
-6.0,9.0,26.0,8.0,-6.0,-2.0,-2.0,4.0,0.0,0.0,0.0,0.0,0.0,0.0,0.0,0.0,0
-9.0,14.0,37.0,8.0,1.0,0.0,13.0,-9.0,0.0,0.0,0.0,0.0,0.0,0.0,0.0,0.0,0
-34.0,-26.0,4.0,-13.0,1.0,1.0,21.0,-14.0,0.0,0.0,0.0,0.0,0.0,0.0,0.0,0.0,0
-69.0,-71.0,-52.0,-42.0,-12.0,-3.0,30.0,-24.0,0.0,0.0,0.0,0.0,0.0,0.0,0.0,0.0,0
-62.0,-58.0,-51.0,-36.0,-7.0,2.0,37.0,-18.0,0.0,0.0,0.0,0.0,0.0,0.0,0.0,0.0,0
-23.0,-16.0,-29.0,-20.0,2.0,3.0,33.0,-6.0,0.0,0.0,0.0,0.0,0.0,0.0,0.0,0.0,0
17.0,31.0,3.0,-7.0,0.0,9.0,26.0,-7.0,0.0,0.0,0.0,0.0,0.0,0.0,0.0,0.0,0
17.0,67.0,22.0,5.0,-4.0,0.0,14.0,-7.0,0.0,0.0,0.0,0.0,0.0,0.0,0.0,0.0,0
3.0,57.0,17.0,8.0,-6.0,-6.0,5.0,-13.0,0.0,0.0,0.0,0.0,0.0,0.0,0.0,0.0,0
0.0,52.0,29.0,9.0,-9.0,-7.0,-11.0,-10.0,0.0,0.0,0.0,0.0,0.0,0.0,0.0,0.0,0
-19.0,27.0,47.0,17.0,-2.0,-13.0,-14.0,-5.0,0.0,0.0,0.0,0.0,0.0,0.0,0.0,0.0,0
-32.0,-18.0,22.0,4.0,-4.0,-16.0,-19.0,-9.0,0.0,0.0,0.0,0.0,0.0,0.0,0.0,0.0,0
-11.0,-53.0,-11.0,-17.0,0.0,-13.0,-17.0,-4.0,0.0,0.0,0.0,0.0,0.0,0.0,0.0,0.0,0
14.0,-77.0,-16.0,-8.0,-1.0,-11.0,-30.0,7.0,0.0,0.0,0.0,0.0,0.0,0.0,0.0,0.0,0
15.0,-66.0,-19.0,8.0,-2.0,-2.0,-29.0,10.0,0.0,0.0,0.0,0.0,0.0,0.0,0.0,0.0,0
13.0,-27.0,-18.0,13.0,0.0,0.0,-21.0,11.0,0.0,0.0,0.0,0.0,0.0,0.0,0.0,0.0,0
77.0,31.0,-24.0,10.0,1.0,1.0,-27.0,19.0,0.0,0.0,0.0,0.0,0.0,0.0,0.0,0.0,0
101.0,64.0,-30.0,-6.0,-7.0,-1.0,-32.0,15.0,0.0,0.0,0.0,0.0,0.0,0.0,0.0,0.0,0
42.0,22.0,-35.0,-25.0,-9.0,-1.0,-19.0,9.0,0.0,0.0,0.0,0.0,0.0,0.0,0.0,0.0,0
-9.0,-19.0,-54.0,-30.0,-8.0,7.0,-12.0,4.0,0.0,0.0,0.0,0.0,0.0,0.0,0.0,0.0,0
-42.0,-23.0,-37.0,-9.0,-3.0,10.0,2.0,-3.0,0.0,0.0,0.0,0.0,0.0,0.0,0.0,0.0,0
-65.0,-21.0,-2.0,6.0,1.0,4.0,11.0,-12.0,0.0,0.0,0.0,0.0,0.0,0.0,0.0,0.0,0
-70.0,-20.0,33.0,13.0,9.0,4.0,22.0,-10.0,0.0,0.0,0.0,0.0,0.0,0.0,0.0,0.0,0
-56.0,13.0,65.0,21.0,6.0,6.0,38.0,-3.0,0.0,0.0,0.0,0.0,0.0,0.0,0.0,0.0,0
-33.0,38.0,77.0,22.0,6.0,5.0,40.0,-10.0,0.0,0.0,0.0,0.0,0.0,0.0,0.0,0.0,0
-12.0,22.0,50.0,15.0,-2.0,-4.0,17.0,-23.0,0.0,0.0,0.0,0.0,0.0,0.0,0.0,0.0,0
-13.0,-4.0,7.0,-1.0,-3.0,-12.0,14.0,-16.0,0.0,0.0,0.0,0.0,0.0,0.0,0.0,0.0,0
-18.0,-18.0,-36.0,-23.0,-8.0,-11.0,11.0,-15.0,0.0,0.0,0.0,0.0,0.0,0.0,0.0,0.0,0
-2.0,0.0,-28.0,-27.0,-14.0,-5.0,4.0,-10.0,0.0,0.0,0.0,0.0,0.0,0.0,0.0,0.0,0
26.0,9.0,-7.0,-25.0,-11.0,-11.0,-2.0,-5.0,0.0,0.0,0.0,0.0,0.0,0.0,0.0,0.0,0
29.0,-1.0,-12.0,-14.0,-11.0,-11.0,-5.0,-12.0,0.0,0.0,0.0,0.0,0.0,0.0,0.0,0.0,0
27.0,-6.0,-12.0,-2.0,-3.0,-3.0,-4.0,-8.0,0.0,0.0,0.0,0.0,0.0,0.0,0.0,0.0,0
15.0,-3.0,-2.0,9.0,1.0,1.0,-13.0,4.0,0.0,0.0,0.0,0.0,0.0,0.0,0.0,0.0,0
19.0,-16.0,-15.0,10.0,-5.0,-8.0,-31.0,7.0,0.0,0.0,0.0,0.0,0.0,0.0,0.0,0.0,0
37.0,-16.0,-21.0,5.0,-4.0,-4.0,-36.0,17.0,0.0,0.0,0.0,0.0,0.0,0.0,0.0,0.0,0
7.0,-7.0,-22.0,-12.0,2.0,-1.0,-18.0,15.0,0.0,0.0,0.0,0.0,0.0,0.0,0.0,0.0,0
-15.0,-8.0,-25.0,-10.0,0.0,-5.0,-33.0,9.0,0.0,0.0,0.0,0.0,0.0,0.0,0.0,0.0,0
-24.0,-14.0,-19.0,7.0,0.0,0.0,-35.0,7.0,0.0,0.0,0.0,0.0,0.0,0.0,0.0,0.0,0
-34.0,-8.0,1.0,3.0,-4.0,6.0,-23.0,7.0,0.0,0.0,0.0,0.0,0.0,0.0,0.0,0.0,0
-8.0,9.0,10.0,2.0,3.0,0.0,-10.0,3.0,0.0,0.0,0.0,0.0,0.0,0.0,0.0,0.0,0
14.0,8.0,14.0,1.0,-2.0,-2.0,1.0,2.0,0.0,0.0,0.0,0.0,0.0,0.0,0.0,0.0,0
14.0,-14.0,-4.0,-6.0,-1.0,5.0,23.0,-7.0,0.0,0.0,0.0,0.0,0.0,0.0,0.0,0.0,0
2.0,-29.0,-19.0,-6.0,-2.0,6.0,33.0,-3.0,0.0,0.0,0.0,0.0,0.0,0.0,0.0,0.0,0
-29.0,-11.0,-6.0,-3.0,1.0,6.0,40.0,-17.0,0.0,0.0,0.0,0.0,0.0,0.0,0.0,0.0,0
-36.0,6.0,24.0,-3.0,3.0,5.0,39.0,-20.0,0.0,0.0,0.0,0.0,0.0,0.0,0.0,0.0,0
-18.0,19.0,32.0,-6.0,-7.0,-4.0,12.0,-12.0,0.0,0.0,0.0,0.0,0.0,0.0,0.0,0.0,0
-8.0,17.0,26.0,2.0,-11.0,-7.0,5.0,-9.0,0.0,0.0,0.0,0.0,0.0,0.0,0.0,0.0,0
-13.0,22.0,35.0,6.0,-5.0,-7.0,12.0,-10.0,0.0,0.0,0.0,0.0,0.0,0.0,0.0,0.0,0
-16.0,24.0,34.0,10.0,-2.0,-11.0,9.0,-13.0,0.0,0.0,0.0,0.0,0.0,0.0,0.0,0.0,0
-6.0,14.0,21.0,7.0,2.0,-5.0,1.0,-10.0,0.0,0.0,0.0,0.0,0.0,0.0,0.0,0.0,0
8.0,-2.0,-1.0,1.0,3.0,-14.0,-14.0,1.0,0.0,0.0,0.0,0.0,0.0,0.0,0.0,0.0,0
11.0,-28.0,-39.0,-19.0,-4.0,-13.0,-7.0,-8.0,0.0,0.0,0.0,0.0,0.0,0.0,0.0,0.0,0
26.0,-38.0,-79.0,-35.0,-14.0,-3.0,-10.0,-8.0,0.0,0.0,0.0,0.0,0.0,0.0,0.0,0.0,0
20.0,-31.0,-73.0,-30.0,-13.0,-3.0,-30.0,3.0,0.0,0.0,0.0,0.0,0.0,0.0,0.0,0.0,0
5.0,-8.0,-39.0,-7.0,4.0,-3.0,-29.0,14.0,0.0,0.0,0.0,0.0,0.0,0.0,0.0,0.0,0
13.0,4.0,-6.0,10.0,3.0,3.0,-20.0,10.0,0.0,0.0,0.0,0.0,0.0,0.0,0.0,0.0,0
23.0,0.0,5.0,8.0,3.0,-3.0,-32.0,10.0,0.0,0.0,0.0,0.0,0.0,0.0,0.0,0.0,0
15.0,0.0,17.0,17.0,5.0,2.0,-31.0,16.0,0.0,0.0,0.0,0.0,0.0,0.0,0.0,0.0,0
2.0,4.0,23.0,20.0,4.0,5.0,-15.0,11.0,0.0,0.0,0.0,0.0,0.0,0.0,0.0,0.0,0
-2.0,0.0,0.0,5.0,-3.0,0.0,-9.0,7.0,0.0,0.0,0.0,0.0,0.0,0.0,0.0,0.0,0
-23.0,-19.0,-20.0,-7.0,-7.0,-4.0,-1.0,6.0,0.0,0.0,0.0,0.0,0.0,0.0,0.0,0.0,0
-44.0,-24.0,-2.0,-13.0,-5.0,-1.0,9.0,-5.0,0.0,0.0,0.0,0.0,0.0,0.0,0.0,0.0,0
-32.0,-12.0,10.0,-9.0,-9.0,2.0,22.0,-13.0,0.0,0.0,0.0,0.0,0.0,0.0,0.0,0.0,0
-30.0,-5.0,20.0,-4.0,-3.0,16.0,39.0,-17.0,0.0,0.0,0.0,0.0,0.0,0.0,0.0,0.0,0
-13.0,13.0,15.0,7.0,1.0,10.0,37.0,-25.0,0.0,0.0,0.0,0.0,0.0,0.0,0.0,0.0,0
23.0,23.0,11.0,9.0,-2.0,-2.0,25.0,-18.0,0.0,0.0,0.0,0.0,0.0,0.0,0.0,0.0,0
13.0,19.0,20.0,0.0,1.0,-10.0,15.0,-11.0,0.0,0.0,0.0,0.0,0.0,0.0,0.0,0.0,0
-15.0,25.0,34.0,-5.0,-1.0,-6.0,11.0,-13.0,0.0,0.0,0.0,0.0,0.0,0.0,0.0,0.0,0
-19.0,37.0,36.0,2.0,0.0,-5.0,3.0,-2.0,0.0,0.0,0.0,0.0,0.0,0.0,0.0,0.0,0
-30.0,23.0,0.0,-11.0,-1.0,-10.0,-2.0,-3.0,0.0,0.0,0.0,0.0,0.0,0.0,0.0,0.0,0
-25.0,0.0,-34.0,-23.0,-8.0,-15.0,-12.0,-10.0,0.0,0.0,0.0,0.0,0.0,0.0,0.0,0.0,0
-4.0,-30.0,-41.0,-28.0,-12.0,-11.0,-14.0,-8.0,0.0,0.0,0.0,0.0,0.0,0.0,0.0,0.0,0
5.0,-68.0,-43.0,-23.0,-9.0,-3.0,-16.0,2.0,0.0,0.0,0.0,0.0,0.0,0.0,0.0,0.0,0
11.0,-64.0,-45.0,-16.0,-7.0,-7.0,-32.0,13.0,0.0,0.0,0.0,0.0,0.0,0.0,0.0,0.0,0
26.0,-32.0,-21.0,8.0,-5.0,1.0,-22.0,18.0,0.0,0.0,0.0,0.0,0.0,0.0,0.0,0.0,0
41.0,6.0,10.0,17.0,-4.0,4.0,-21.0,7.0,0.0,0.0,0.0,0.0,0.0,0.0,0.0,0.0,0
60.0,49.0,18.0,23.0,3.0,0.0,-31.0,4.0,0.0,0.0,0.0,0.0,0.0,0.0,0.0,0.0,0
60.0,38.0,10.0,25.0,3.0,1.0,-39.0,3.0,0.0,0.0,0.0,0.0,0.0,0.0,0.0,0.0,0
41.0,13.0,-34.0,8.0,-1.0,0.0,-27.0,0.0,0.0,0.0,0.0,0.0,0.0,0.0,0.0,0.0,0
6.0,17.0,-38.0,-5.0,-5.0,-4.0,-19.0,2.0,0.0,0.0,0.0,0.0,0.0,0.0,0.0,0.0,0
-29.0,4.0,-23.0,-12.0,-3.0,2.0,-9.0,-1.0,0.0,0.0,0.0,0.0,0.0,0.0,0.0,0.0,0
-62.0,-28.0,-12.0,-20.0,-4.0,1.0,11.0,-9.0,0.0,0.0,0.0,0.0,0.0,0.0,0.0,0.0,0
-113.0,-87.0,8.0,4.0,7.0,6.0,34.0,-1.0,0.0,0.0,0.0,0.0,0.0,0.0,0.0,0.0,0
-124.0,-84.0,47.0,24.0,13.0,15.0,49.0,-3.0,0.0,0.0,0.0,0.0,0.0,0.0,0.0,0.0,0
-58.0,-21.0,63.0,4.0,5.0,7.0,49.0,-7.0,0.0,0.0,0.0,0.0,0.0,0.0,0.0,0.0,0
7.0,47.0,66.0,0.0,2.0,0.0,29.0,-7.0,0.0,0.0,0.0,0.0,0.0,0.0,0.0,0.0,0
26.0,77.0,43.0,-2.0,2.0,-2.0,11.0,-11.0,0.0,0.0,0.0,0.0,0.0,0.0,0.0,0.0,0
48.0,70.0,-12.0,-22.0,-16.0,-6.0,7.0,-18.0,0.0,0.0,0.0,0.0,0.0,0.0,0.0,0.0,0
60.0,61.0,-22.0,-30.0,-19.0,-11.0,-3.0,-23.0,0.0,0.0,0.0,0.0,0.0,0.0,0.0,0.0,0
64.0,36.0,-30.0,-27.0,-13.0,-7.0,-8.0,-13.0,0.0,0.0,0.0,0.0,0.0,0.0,0.0,0.0,0
33.0,-15.0,-28.0,-11.0,-8.0,-12.0,-9.0,-5.0,0.0,0.0,0.0,0.0,0.0,0.0,0.0,0.0,0
-12.0,-40.0,-14.0,0.0,-4.0,-12.0,-8.0,-1.0,0.0,0.0,0.0,0.0,0.0,0.0,0.0,0.0,0
-41.0,-55.0,-19.0,-5.0,-2.0,-5.0,-16.0,-3.0,0.0,0.0,0.0,0.0,0.0,0.0,0.0,0.0,0
-32.0,-43.0,-36.0,-7.0,-4.0,-8.0,-29.0,-3.0,0.0,0.0,0.0,0.0,0.0,0.0,0.0,0.0,0
-12.0,-7.0,-20.0,16.0,6.0,-3.0,-28.0,6.0,0.0,0.0,0.0,0.0,0.0,0.0,0.0,0.0,0
1.0,-7.0,1.0,30.0,16.0,-2.0,-22.0,14.0,0.0,0.0,0.0,0.0,0.0,0.0,0.0,0.0,0
20.0,-23.0,5.0,15.0,-1.0,1.0,-34.0,16.0,0.0,0.0,0.0,0.0,0.0,0.0,0.0,0.0,0
38.0,-18.0,6.0,8.0,-7.0,-1.0,-38.0,9.0,0.0,0.0,0.0,0.0,0.0,0.0,0.0,0.0,0
32.0,-20.0,-23.0,-5.0,-8.0,1.0,-21.0,2.0,0.0,0.0,0.0,0.0,0.0,0.0,0.0,0.0,0
14.0,-16.0,-47.0,-27.0,-12.0,1.0,-9.0,8.0,0.0,0.0,0.0,0.0,0.0,0.0,0.0,0.0,0
-24.0,-6.0,-34.0,-19.0,-7.0,8.0,8.0,14.0,0.0,0.0,0.0,0.0,0.0,0.0,0.0,0.0,0
-34.0,-6.0,-14.0,-10.0,-2.0,10.0,22.0,5.0,0.0,0.0,0.0,0.0,0.0,0.0,0.0,0.0,0
-28.0,5.0,23.0,3.0,-2.0,4.0,24.0,-3.0,0.0,0.0,0.0,0.0,0.0,0.0,0.0,0.0,0
-21.0,55.0,60.0,18.0,9.0,10.0,44.0,-21.0,0.0,0.0,0.0,0.0,0.0,0.0,0.0,0.0,0
-16.0,101.0,96.0,25.0,7.0,10.0,42.0,-27.0,0.0,0.0,0.0,0.0,0.0,0.0,0.0,0.0,0
-14.0,59.0,69.0,14.0,-6.0,-11.0,17.0,-18.0,0.0,0.0,0.0,0.0,0.0,0.0,0.0,0.0,0
-20.0,-11.0,1.0,-6.0,-8.0,-15.0,8.0,-13.0,0.0,0.0,0.0,0.0,0.0,0.0,0.0,0.0,0
-25.0,-31.0,-37.0,-23.0,2.0,-8.0,8.0,-14.0,0.0,0.0,0.0,0.0,0.0,0.0,0.0,0.0,0
-23.0,-29.0,-32.0,-20.0,-1.0,-6.0,12.0,-13.0,0.0,0.0,0.0,0.0,0.0,0.0,0.0,0.0,0
-18.0,-27.0,-1.0,-10.0,8.0,-9.0,1.0,-5.0,0.0,0.0,0.0,0.0,0.0,0.0,0.0,0.0,0
-5.0,-31.0,8.0,-1.0,-2.0,-8.0,-5.0,1.0,0.0,0.0,0.0,0.0,0.0,0.0,0.0,0.0,0
0.0,-45.0,-47.0,-15.0,-15.0,-12.0,-14.0,-3.0,0.0,0.0,0.0,0.0,0.0,0.0,0.0,0.0,0
14.0,-33.0,-71.0,-26.0,-22.0,-11.0,-24.0,-1.0,0.0,0.0,0.0,0.0,0.0,0.0,0.0,0.0,0
37.0,-18.0,-60.0,-10.0,-10.0,-5.0,-39.0,-1.0,0.0,0.0,0.0,0.0,0.0,0.0,0.0,0.0,0
63.0,-3.0,-30.0,-4.0,-6.0,-9.0,-29.0,4.0,0.0,0.0,0.0,0.0,0.0,0.0,0.0,0.0,0
56.0,15.0,8.0,6.0,3.0,-4.0,-15.0,8.0,0.0,0.0,0.0,0.0,0.0,0.0,0.0,0.0,0
36.0,31.0,28.0,12.0,2.0,0.0,-24.0,17.0,0.0,0.0,0.0,0.0,0.0,0.0,0.0,0.0,0
13.0,20.0,19.0,13.0,4.0,4.0,-32.0,12.0,0.0,0.0,0.0,0.0,0.0,0.0,0.0,0.0,0
-20.0,0.0,16.0,17.0,5.0,3.0,-22.0,3.0,0.0,0.0,0.0,0.0,0.0,0.0,0.0,0.0,0
-25.0,-21.0,10.0,22.0,8.0,4.0,-18.0,8.0,0.0,0.0,0.0,0.0,0.0,0.0,0.0,0.0,0
-16.0,-22.0,-8.0,5.0,3.0,4.0,-4.0,10.0,0.0,0.0,0.0,0.0,0.0,0.0,0.0,0.0,0
-26.0,-3.0,-3.0,-6.0,-4.0,13.0,17.0,7.0,0.0,0.0,0.0,0.0,0.0,0.0,0.0,0.0,0
-28.0,29.0,5.0,-7.0,-1.0,14.0,27.0,2.0,0.0,0.0,0.0,0.0,0.0,0.0,0.0,0.0,0
-46.0,36.0,8.0,-18.0,-5.0,2.0,37.0,-17.0,0.0,0.0,0.0,0.0,0.0,0.0,0.0,0.0,0
-66.0,23.0,6.0,-28.0,-12.0,-12.0,43.0,-30.0,0.0,0.0,0.0,0.0,0.0,0.0,0.0,0.0,0
-47.0,-3.0,-4.0,-26.0,-8.0,-15.0,18.0,-21.0,0.0,0.0,0.0,0.0,0.0,0.0,0.0,0.0,0
21.0,4.0,6.0,-8.0,4.0,-3.0,12.0,-17.0,0.0,0.0,0.0,0.0,0.0,0.0,0.0,0.0,0
46.0,10.0,21.0,2.0,0.0,-9.0,13.0,-15.0,0.0,0.0,0.0,0.0,0.0,0.0,0.0,0.0,0
31.0,-7.0,25.0,5.0,-9.0,-12.0,12.0,-9.0,0.0,0.0,0.0,0.0,0.0,0.0,0.0,0.0,0
4.0,-67.0,1.0,2.0,-2.0,-7.0,-3.0,-1.0,0.0,0.0,0.0,0.0,0.0,0.0,0.0,0.0,0
-11.0,-99.0,-29.0,2.0,6.0,-10.0,-11.0,3.0,0.0,0.0,0.0,0.0,0.0,0.0,0.0,0.0,0
-30.0,-64.0,-14.0,9.0,0.0,-4.0,-9.0,-1.0,0.0,0.0,0.0,0.0,0.0,0.0,0.0,0.0,0
-33.0,5.0,1.0,20.0,0.0,3.0,-14.0,6.0,0.0,0.0,0.0,0.0,0.0,0.0,0.0,0.0,0
10.0,47.0,-14.0,-3.0,-5.0,1.0,-28.0,7.0,0.0,0.0,0.0,0.0,0.0,0.0,0.0,0.0,0
28.0,60.0,-24.0,-20.0,-6.0,-8.0,-31.0,7.0,0.0,0.0,0.0,0.0,0.0,0.0,0.0,0.0,0
21.0,58.0,-21.0,-22.0,-9.0,-6.0,-25.0,0.0,0.0,0.0,0.0,0.0,0.0,0.0,0.0,0.0,0
41.0,49.0,-8.0,-5.0,-13.0,-4.0,-33.0,6.0,0.0,0.0,0.0,0.0,0.0,0.0,0.0,0.0,0
39.0,6.0,-3.0,3.0,-2.0,-4.0,-28.0,13.0,0.0,0.0,0.0,0.0,0.0,0.0,0.0,0.0,0
19.0,-33.0,-32.0,-3.0,2.0,-1.0,-18.0,11.0,0.0,0.0,0.0,0.0,0.0,0.0,0.0,0.0,0
18.0,-29.0,-36.0,-9.0,1.0,2.0,-17.0,7.0,0.0,0.0,0.0,0.0,0.0,0.0,0.0,0.0,0
10.0,-31.0,-14.0,3.0,-1.0,6.0,-4.0,0.0,0.0,0.0,0.0,0.0,0.0,0.0,0.0,0.0,0
-18.0,-46.0,-3.0,6.0,3.0,10.0,15.0,-5.0,0.0,0.0,0.0,0.0,0.0,0.0,0.0,0.0,0
-61.0,-49.0,30.0,9.0,2.0,1.0,23.0,-6.0,0.0,0.0,0.0,0.0,0.0,0.0,0.0,0.0,0
-92.0,-30.0,55.0,6.0,-5.0,3.0,34.0,-15.0,0.0,0.0,0.0,0.0,0.0,0.0,0.0,0.0,0
-88.0,16.0,48.0,3.0,0.0,0.0,39.0,-16.0,0.0,0.0,0.0,0.0,0.0,0.0,0.0,0.0,0
-44.0,42.0,12.0,-5.0,0.0,-1.0,26.0,-7.0,0.0,0.0,0.0,0.0,0.0,0.0,0.0,0.0,0
23.0,53.0,2.0,-9.0,-4.0,-2.0,17.0,-8.0,0.0,0.0,0.0,0.0,0.0,0.0,0.0,0.0,0
81.0,79.0,37.0,5.0,3.0,-7.0,13.0,-14.0,0.0,0.0,0.0,0.0,0.0,0.0,0.0,0.0,0
60.0,66.0,39.0,0.0,1.0,-13.0,12.0,-15.0,0.0,0.0,0.0,0.0,0.0,0.0,0.0,0.0,0
25.0,8.0,-6.0,-15.0,-2.0,-13.0,1.0,-9.0,0.0,0.0,0.0,0.0,0.0,0.0,0.0,0.0,0
1.0,-40.0,-43.0,-29.0,-11.0,-8.0,-15.0,-9.0,0.0,0.0,0.0,0.0,0.0,0.0,0.0,0.0,0
-12.0,-51.0,-52.0,-28.0,-14.0,-14.0,-21.0,-11.0,0.0,0.0,0.0,0.0,0.0,0.0,0.0,0.0,0
-18.0,-61.0,-51.0,-12.0,-8.0,-11.0,-12.0,-8.0,0.0,0.0,0.0,0.0,0.0,0.0,0.0,0.0,0
-10.0,-65.0,-47.0,2.0,-6.0,-3.0,-25.0,0.0,0.0,0.0,0.0,0.0,0.0,0.0,0.0,0.0,0
-10.0,-31.0,-24.0,16.0,11.0,3.0,-32.0,10.0,0.0,0.0,0.0,0.0,0.0,0.0,0.0,0.0,0
-33.0,-18.0,17.0,24.0,8.0,6.0,-20.0,10.0,0.0,0.0,0.0,0.0,0.0,0.0,0.0,0.0,0
-7.0,-5.0,5.0,7.0,-2.0,-1.0,-29.0,18.0,0.0,0.0,0.0,0.0,0.0,0.0,0.0,0.0,0
33.0,23.0,-12.0,-5.0,-8.0,-4.0,-38.0,19.0,0.0,0.0,0.0,0.0,0.0,0.0,0.0,0.0,0
36.0,28.0,-12.0,1.0,-5.0,-2.0,-24.0,9.0,0.0,0.0,0.0,0.0,0.0,0.0,0.0,0.0,0
38.0,12.0,-8.0,-1.0,-5.0,0.0,-12.0,7.0,0.0,0.0,0.0,0.0,0.0,0.0,0.0,0.0,0
15.0,17.0,-9.0,-11.0,2.0,3.0,5.0,1.0,0.0,0.0,0.0,0.0,0.0,0.0,0.0,0.0,0
-25.0,15.0,-3.0,-21.0,0.0,8.0,17.0,-8.0,0.0,0.0,0.0,0.0,0.0,0.0,0.0,0.0,0
-29.0,7.0,26.0,3.0,1.0,6.0,15.0,-13.0,0.0,0.0,0.0,0.0,0.0,0.0,0.0,0.0,0
-29.0,-8.0,46.0,22.0,7.0,4.0,32.0,-22.0,0.0,0.0,0.0,0.0,0.0,0.0,0.0,0.0,0
-31.0,-33.0,49.0,6.0,2.0,0.0,40.0,-21.0,0.0,0.0,0.0,0.0,0.0,0.0,0.0,0.0,0
-6.0,-10.0,28.0,3.0,-1.0,-4.0,23.0,-9.0,0.0,0.0,0.0,0.0,0.0,0.0,0.0,0.0,0
25.0,29.0,18.0,6.0,0.0,-4.0,19.0,0.0,0.0,0.0,0.0,0.0,0.0,0.0,0.0,0.0,0
33.0,41.0,12.0,2.0,-1.0,-6.0,14.0,-4.0,0.0,0.0,0.0,0.0,0.0,0.0,0.0,0.0,0
15.0,29.0,-10.0,-23.0,-10.0,-15.0,10.0,-8.0,0.0,0.0,0.0,0.0,0.0,0.0,0.0,0.0,0
-47.0,-16.0,-48.0,-51.0,-14.0,-7.0,-3.0,-10.0,0.0,0.0,0.0,0.0,0.0,0.0,0.0,0.0,0
-61.0,-25.0,-58.0,-53.0,-13.0,-11.0,-10.0,-9.0,0.0,0.0,0.0,0.0,0.0,0.0,0.0,0.0,0
-61.0,-36.0,-36.0,-24.0,-5.0,-9.0,-9.0,-4.0,0.0,0.0,0.0,0.0,0.0,0.0,0.0,0.0,0
-49.0,-51.0,-13.0,5.0,-1.0,-6.0,-11.0,1.0,0.0,0.0,0.0,0.0,0.0,0.0,0.0,0.0,0
4.0,-44.0,-6.0,32.0,1.0,-10.0,-29.0,2.0,0.0,0.0,0.0,0.0,0.0,0.0,0.0,0.0,0
62.0,-4.0,0.0,27.0,-3.0,-6.0,-35.0,5.0,0.0,0.0,0.0,0.0,0.0,0.0,0.0,0.0,0
74.0,22.0,1.0,19.0,-1.0,-3.0,-27.0,9.0,0.0,0.0,0.0,0.0,0.0,0.0,0.0,0.0,0
64.0,23.0,-11.0,6.0,-3.0,-4.0,-37.0,13.0,0.0,0.0,0.0,0.0,0.0,0.0,0.0,0.0,0
46.0,20.0,12.0,9.0,1.0,7.0,-31.0,12.0,0.0,0.0,0.0,0.0,0.0,0.0,0.0,0.0,0
24.0,8.0,17.0,13.0,7.0,16.0,-21.0,10.0,0.0,0.0,0.0,0.0,0.0,0.0,0.0,0.0,0
-4.0,-18.0,-26.0,-3.0,4.0,3.0,-8.0,13.0,0.0,0.0,0.0,0.0,0.0,0.0,0.0,0.0,0
-15.0,-21.0,-37.0,-16.0,3.0,3.0,3.0,9.0,0.0,0.0,0.0,0.0,0.0,0.0,0.0,0.0,0
-19.0,-2.0,-9.0,-21.0,-7.0,8.0,12.0,-7.0,0.0,0.0,0.0,0.0,0.0,0.0,0.0,0.0,0
-24.0,13.0,18.0,-17.0,-8.0,4.0,22.0,-17.0,0.0,0.0,0.0,0.0,0.0,0.0,0.0,0.0,0
-47.0,15.0,34.0,-6.0,-7.0,-4.0,35.0,-19.0,0.0,0.0,0.0,0.0,0.0,0.0,0.0,0.0,0
-79.0,4.0,32.0,3.0,-3.0,1.0,37.0,-17.0,0.0,0.0,0.0,0.0,0.0,0.0,0.0,0.0,0
-70.0,-2.0,27.0,5.0,2.0,-6.0,25.0,-19.0,0.0,0.0,0.0,0.0,0.0,0.0,0.0,0.0,0
-39.0,-4.0,6.0,-8.0,-9.0,-11.0,15.0,-10.0,0.0,0.0,0.0,0.0,0.0,0.0,0.0,0.0,0
-17.0,-13.0,-9.0,-24.0,-15.0,-10.0,8.0,-7.0,0.0,0.0,0.0,0.0,0.0,0.0,0.0,0.0,0
16.0,-7.0,-3.0,-17.0,-4.0,-9.0,5.0,-9.0,0.0,0.0,0.0,0.0,0.0,0.0,0.0,0.0,0
43.0,9.0,4.0,1.0,6.0,-5.0,4.0,1.0,0.0,0.0,0.0,0.0,0.0,0.0,0.0,0.0,0
60.0,27.0,9.0,10.0,11.0,0.0,-5.0,3.0,0.0,0.0,0.0,0.0,0.0,0.0,0.0,0.0,0
56.0,30.0,6.0,14.0,11.0,-5.0,-15.0,-5.0,0.0,0.0,0.0,0.0,0.0,0.0,0.0,0.0,0
27.0,5.0,-16.0,11.0,-4.0,-9.0,-20.0,-13.0,0.0,0.0,0.0,0.0,0.0,0.0,0.0,0.0,0
-4.0,-19.0,-30.0,0.0,-5.0,-8.0,-34.0,-4.0,0.0,0.0,0.0,0.0,0.0,0.0,0.0,0.0,0
-21.0,-45.0,-46.0,-6.0,-5.0,-6.0,-32.0,4.0,0.0,0.0,0.0,0.0,0.0,0.0,0.0,0.0,0
-22.0,-42.0,-52.0,-13.0,-6.0,-2.0,-17.0,10.0,0.0,0.0,0.0,0.0,0.0,0.0,0.0,0.0,0
-19.0,-30.0,-35.0,-2.0,-7.0,-5.0,-31.0,15.0,0.0,0.0,0.0,0.0,0.0,0.0,0.0,0.0,0
-11.0,-34.0,-17.0,-2.0,-4.0,2.0,-37.0,13.0,0.0,0.0,0.0,0.0,0.0,0.0,0.0,0.0,0
24.0,-10.0,-13.0,-14.0,-9.0,6.0,-21.0,7.0,0.0,0.0,0.0,0.0,0.0,0.0,0.0,0.0,0
50.0,14.0,1.0,-12.0,-9.0,2.0,-16.0,14.0,0.0,0.0,0.0,0.0,0.0,0.0,0.0,0.0,0
22.0,22.0,30.0,-1.0,-1.0,-3.0,1.0,6.0,0.0,0.0,0.0,0.0,0.0,0.0,0.0,0.0,0
-29.0,2.0,30.0,2.0,9.0,2.0,15.0,-1.0,0.0,0.0,0.0,0.0,0.0,0.0,0.0,0.0,0
-57.0,-18.0,23.0,6.0,2.0,9.0,24.0,-7.0,0.0,0.0,0.0,0.0,0.0,0.0,0.0,0.0,0
-57.0,9.0,28.0,11.0,4.0,7.0,37.0,-22.0,0.0,0.0,0.0,0.0,0.0,0.0,0.0,0.0,0
-20.0,43.0,35.0,16.0,5.0,3.0,41.0,-22.0,0.0,0.0,0.0,0.0,0.0,0.0,0.0,0.0,0
-5.0,30.0,17.0,8.0,-1.0,-4.0,31.0,-12.0,0.0,0.0,0.0,0.0,0.0,0.0,0.0,0.0,0
-7.0,4.0,-9.0,-15.0,-6.0,-9.0,11.0,-9.0,0.0,0.0,0.0,0.0,0.0,0.0,0.0,0.0,0
-2.0,8.0,-15.0,-27.0,-9.0,-6.0,5.0,-7.0,0.0,0.0,0.0,0.0,0.0,0.0,0.0,0.0,0
1.0,16.0,-7.0,-15.0,-11.0,-1.0,10.0,-14.0,0.0,0.0,0.0,0.0,0.0,0.0,0.0,0.0,0
12.0,-3.0,-2.0,1.0,-9.0,-4.0,2.0,-11.0,0.0,0.0,0.0,0.0,0.0,0.0,0.0,0.0,0
12.0,-21.0,-3.0,1.0,4.0,-6.0,-7.0,-4.0,0.0,0.0,0.0,0.0,0.0,0.0,0.0,0.0,0
3.0,-20.0,-3.0,-3.0,0.0,-14.0,-10.0,-1.0,0.0,0.0,0.0,0.0,0.0,0.0,0.0,0.0,0
2.0,-14.0,-6.0,-7.0,-7.0,-11.0,-16.0,-2.0,0.0,0.0,0.0,0.0,0.0,0.0,0.0,0.0,0
15.0,-21.0,-36.0,-17.0,-9.0,-14.0,-35.0,1.0,0.0,0.0,0.0,0.0,0.0,0.0,0.0,0.0,0
10.0,-23.0,-40.0,-25.0,-9.0,-14.0,-39.0,-3.0,0.0,0.0,0.0,0.0,0.0,0.0,0.0,0.0,0
-9.0,-19.0,-27.0,-11.0,-8.0,-5.0,-24.0,6.0,0.0,0.0,0.0,0.0,0.0,0.0,0.0,0.0,0
18.0,-16.0,-25.0,4.0,-2.0,1.0,-23.0,15.0,0.0,0.0,0.0,0.0,0.0,0.0,0.0,0.0,0
38.0,-6.0,-14.0,17.0,8.0,10.0,-28.0,22.0,0.0,0.0,0.0,0.0,0.0,0.0,0.0,0.0,0
22.0,-12.0,-5.0,22.0,5.0,12.0,-12.0,14.0,0.0,0.0,0.0,0.0,0.0,0.0,0.0,0.0,0
-1.0,-7.0,6.0,16.0,-3.0,5.0,-6.0,3.0,0.0,0.0,0.0,0.0,0.0,0.0,0.0,0.0,0
-29.0,2.0,19.0,9.0,1.0,1.0,-2.0,-2.0,0.0,0.0,0.0,0.0,0.0,0.0,0.0,0.0,0
-44.0,8.0,13.0,-3.0,3.0,5.0,11.0,-7.0,0.0,0.0,0.0,0.0,0.0,0.0,0.0,0.0,0
-42.0,18.0,9.0,-10.0,0.0,3.0,18.0,-5.0,0.0,0.0,0.0,0.0,0.0,0.0,0.0,0.0,0
-44.0,21.0,18.0,-12.0,-2.0,2.0,35.0,-7.0,0.0,0.0,0.0,0.0,0.0,0.0,0.0,0.0,0
-27.0,16.0,20.0,-19.0,4.0,0.0,41.0,-15.0,0.0,0.0,0.0,0.0,0.0,0.0,0.0,0.0,0
-3.0,13.0,9.0,-12.0,-6.0,-8.0,26.0,-15.0,0.0,0.0,0.0,0.0,0.0,0.0,0.0,0.0,0
23.0,0.0,5.0,-11.0,-7.0,-11.0,16.0,-16.0,0.0,0.0,0.0,0.0,0.0,0.0,0.0,0.0,0
19.0,-9.0,-1.0,-5.0,-8.0,-7.0,14.0,-19.0,0.0,0.0,0.0,0.0,0.0,0.0,0.0,0.0,0
7.0,-3.0,4.0,-3.0,-2.0,-4.0,11.0,-13.0,0.0,0.0,0.0,0.0,0.0,0.0,0.0,0.0,0
9.0,10.0,15.0,8.0,-1.0,-11.0,-3.0,-7.0,0.0,0.0,0.0,0.0,0.0,0.0,0.0,0.0,0
-5.0,3.0,8.0,13.0,-3.0,-7.0,-12.0,-4.0,0.0,0.0,0.0,0.0,0.0,0.0,0.0,0.0,0
-24.0,-12.0,-8.0,6.0,-4.0,-6.0,-15.0,-4.0,0.0,0.0,0.0,0.0,0.0,0.0,0.0,0.0,0
-21.0,5.0,-7.0,-1.0,-8.0,-8.0,-16.0,-8.0,0.0,0.0,0.0,0.0,0.0,0.0,0.0,0.0,0
1.0,5.0,-2.0,7.0,-7.0,-8.0,-30.0,7.0,0.0,0.0,0.0,0.0,0.0,0.0,0.0,0.0,0
22.0,-7.0,13.0,20.0,0.0,-4.0,-33.0,18.0,0.0,0.0,0.0,0.0,0.0,0.0,0.0,0.0,0
20.0,-38.0,-7.0,5.0,1.0,3.0,-28.0,7.0,0.0,0.0,0.0,0.0,0.0,0.0,0.0,0.0,0
29.0,-66.0,-65.0,-22.0,-5.0,-2.0,-34.0,-3.0,0.0,0.0,0.0,0.0,0.0,0.0,0.0,0.0,0
49.0,-29.0,-58.0,-18.0,4.0,1.0,-32.0,5.0,0.0,0.0,0.0,0.0,0.0,0.0,0.0,0.0,0
48.0,9.0,-27.0,-9.0,0.0,6.0,-19.0,7.0,0.0,0.0,0.0,0.0,0.0,0.0,0.0,0.0,0
38.0,14.0,-36.0,-13.0,-14.0,-1.0,-16.0,5.0,0.0,0.0,0.0,0.0,0.0,0.0,0.0,0.0,0
5.0,26.0,-39.0,-22.0,-13.0,-4.0,1.0,4.0,0.0,0.0,0.0,0.0,0.0,0.0,0.0,0.0,0
-49.0,40.0,-2.0,-22.0,-9.0,3.0,20.0,2.0,0.0,0.0,0.0,0.0,0.0,0.0,0.0,0.0,0
-100.0,8.0,17.0,-16.0,-4.0,7.0,25.0,0.0,0.0,0.0,0.0,0.0,0.0,0.0,0.0,0.0,0
-110.0,-40.0,26.0,-6.0,8.0,6.0,47.0,-11.0,0.0,0.0,0.0,0.0,0.0,0.0,0.0,0.0,0
-77.0,-34.0,49.0,16.0,18.0,4.0,42.0,-17.0,0.0,0.0,0.0,0.0,0.0,0.0,0.0,0.0,0
-24.0,-14.0,59.0,28.0,10.0,-2.0,19.0,-11.0,0.0,0.0,0.0,0.0,0.0,0.0,0.0,0.0,0
8.0,3.0,60.0,34.0,12.0,-8.0,9.0,-14.0,0.0,0.0,0.0,0.0,0.0,0.0,0.0,0.0,0
31.0,30.0,42.0,22.0,-3.0,-5.0,8.0,-20.0,0.0,0.0,0.0,0.0,0.0,0.0,0.0,0.0,0
45.0,37.0,-3.0,-2.0,-14.0,-12.0,2.0,-27.0,0.0,0.0,0.0,0.0,0.0,0.0,0.0,0.0,0
36.0,19.0,-27.0,-16.0,-12.0,-7.0,-5.0,-15.0,0.0,0.0,0.0,0.0,0.0,0.0,0.0,0.0,0
9.0,1.0,-37.0,-26.0,-10.0,-6.0,-2.0,1.0,0.0,0.0,0.0,0.0,0.0,0.0,0.0,0.0,0
38.0,13.0,-34.0,-28.0,-13.0,-7.0,-7.0,2.0,0.0,0.0,0.0,0.0,0.0,0.0,0.0,0.0,0
54.0,24.0,-15.0,-23.0,-16.0,-7.0,-17.0,2.0,0.0,0.0,0.0,0.0,0.0,0.0,0.0,0.0,0
46.0,2.0,-20.0,-8.0,-3.0,-12.0,-30.0,7.0,0.0,0.0,0.0,0.0,0.0,0.0,0.0,0.0,0
13.0,-25.0,-24.0,7.0,4.0,-7.0,-27.0,12.0,0.0,0.0,0.0,0.0,0.0,0.0,0.0,0.0,0
-30.0,-36.0,-13.0,18.0,5.0,-4.0,-24.0,9.0,0.0,0.0,0.0,0.0,0.0,0.0,0.0,0.0,0
-34.0,-44.0,-1.0,15.0,5.0,1.0,-31.0,11.0,0.0,0.0,0.0,0.0,0.0,0.0,0.0,0.0,0
-32.0,-32.0,1.0,16.0,4.0,3.0,-31.0,7.0,0.0,0.0,0.0,0.0,0.0,0.0,0.0,0.0,0
-48.0,-33.0,-17.0,8.0,1.0,0.0,-20.0,3.0,0.0,0.0,0.0,0.0,0.0,0.0,0.0,0.0,0
-30.0,-37.0,-44.0,-13.0,-9.0,-2.0,-11.0,9.0,0.0,0.0,0.0,0.0,0.0,0.0,0.0,0.0,0
3.0,-31.0,-33.0,-17.0,-11.0,8.0,2.0,10.0,0.0,0.0,0.0,0.0,0.0,0.0,0.0,0.0,0
16.0,-5.0,-1.0,-14.0,-12.0,10.0,12.0,0.0,0.0,0.0,0.0,0.0,0.0,0.0,0.0,0.0,0
34.0,36.0,20.0,-5.0,-4.0,6.0,27.0,-5.0,0.0,0.0,0.0,0.0,0.0,0.0,0.0,0.0,0
36.0,79.0,48.0,-1.0,7.0,6.0,35.0,-9.0,0.0,0.0,0.0,0.0,0.0,0.0,0.0,0.0,0
16.0,76.0,81.0,12.0,5.0,1.0,36.0,-20.0,0.0,0.0,0.0,0.0,0.0,0.0,0.0,0.0,0
-23.0,28.0,52.0,-3.0,-4.0,-14.0,17.0,-23.0,0.0,0.0,0.0,0.0,0.0,0.0,0.0,0.0,0
-53.0,3.0,26.0,1.0,-5.0,-10.0,12.0,-20.0,0.0,0.0,0.0,0.0,0.0,0.0,0.0,0.0,0
-60.0,-12.0,0.0,-8.0,-5.0,-6.0,13.0,-15.0,0.0,0.0,0.0,0.0,0.0,0.0,0.0,0.0,0
-47.0,-31.0,-31.0,-20.0,5.0,-10.0,8.0,-16.0,0.0,0.0,0.0,0.0,0.0,0.0,0.0,0.0,0
-32.0,-36.0,-45.0,-20.0,-4.0,-9.0,3.0,-7.0,0.0,0.0,0.0,0.0,0.0,0.0,0.0,0.0,0
-23.0,-43.0,-38.0,-5.0,-7.0,-10.0,-11.0,5.0,0.0,0.0,0.0,0.0,0.0,0.0,0.0,0.0,0
23.0,-20.0,-26.0,4.0,-5.0,-7.0,-7.0,3.0,0.0,0.0,0.0,0.0,0.0,0.0,0.0,0.0,0
55.0,-1.0,-12.0,-5.0,-5.0,1.0,-9.0,-1.0,0.0,0.0,0.0,0.0,0.0,0.0,0.0,0.0,0
60.0,-2.0,-20.0,-8.0,-6.0,5.0,-30.0,5.0,0.0,0.0,0.0,0.0,0.0,0.0,0.0,0.0,0
32.0,-7.0,-17.0,3.0,-1.0,-4.0,-33.0,7.0,0.0,0.0,0.0,0.0,0.0,0.0,0.0,0.0,0
-5.0,7.0,2.0,2.0,2.0,-6.0,-30.0,3.0,0.0,0.0,0.0,0.0,0.0,0.0,0.0,0.0,0
-4.0,9.0,10.0,0.0,-11.0,-11.0,-41.0,6.0,0.0,0.0,0.0,0.0,0.0,0.0,0.0,0.0,0
21.0,2.0,-6.0,10.0,-11.0,-8.0,-34.0,11.0,0.0,0.0,0.0,0.0,0.0,0.0,0.0,0.0,0
50.0,23.0,-2.0,10.0,11.0,4.0,-16.0,11.0,0.0,0.0,0.0,0.0,0.0,0.0,0.0,0.0,0
46.0,16.0,-6.0,2.0,9.0,3.0,-12.0,12.0,0.0,0.0,0.0,0.0,0.0,0.0,0.0,0.0,0
-3.0,-7.0,-13.0,-2.0,0.0,5.0,0.0,9.0,0.0,0.0,0.0,0.0,0.0,0.0,0.0,0.0,0
-43.0,-17.0,-5.0,-7.0,-3.0,9.0,14.0,0.0,0.0,0.0,0.0,0.0,0.0,0.0,0.0,0.0,0
-66.0,-13.0,4.0,-6.0,-5.0,5.0,26.0,-9.0,0.0,0.0,0.0,0.0,0.0,0.0,0.0,0.0,0
-72.0,-19.0,13.0,-10.0,-5.0,3.0,40.0,-20.0,0.0,0.0,0.0,0.0,0.0,0.0,0.0,0.0,0
-61.0,-10.0,22.0,-7.0,-4.0,-3.0,36.0,-24.0,0.0,0.0,0.0,0.0,0.0,0.0,0.0,0.0,0
-26.0,-1.0,22.0,-6.0,-5.0,-10.0,14.0,-19.0,0.0,0.0,0.0,0.0,0.0,0.0,0.0,0.0,0
-2.0,10.0,28.0,1.0,-4.0,-4.0,10.0,-13.0,0.0,0.0,0.0,0.0,0.0,0.0,0.0,0.0,0
3.0,14.0,29.0,0.0,2.0,-5.0,12.0,-12.0,0.0,0.0,0.0,0.0,0.0,0.0,0.0,0.0,0
-4.0,9.0,9.0,1.0,5.0,-9.0,12.0,-7.0,0.0,0.0,0.0,0.0,0.0,0.0,0.0,0.0,0
-5.0,-18.0,-24.0,-7.0,-2.0,-7.0,6.0,-6.0,0.0,0.0,0.0,0.0,0.0,0.0,0.0,0.0,0
2.0,-37.0,-30.0,-15.0,-6.0,-6.0,-6.0,-1.0,0.0,0.0,0.0,0.0,0.0,0.0,0.0,0.0,0
12.0,-5.0,-4.0,-10.0,-7.0,-8.0,-17.0,-4.0,0.0,0.0,0.0,0.0,0.0,0.0,0.0,0.0,0
25.0,44.0,-3.0,-8.0,-8.0,-8.0,-22.0,-6.0,0.0,0.0,0.0,0.0,0.0,0.0,0.0,0.0,0
46.0,50.0,-23.0,0.0,-9.0,-6.0,-31.0,2.0,0.0,0.0,0.0,0.0,0.0,0.0,0.0,0.0,0
48.0,18.0,-30.0,-8.0,-6.0,-5.0,-31.0,13.0,0.0,0.0,0.0,0.0,0.0,0.0,0.0,0.0,0
27.0,-8.0,-15.0,0.0,2.0,-7.0,-24.0,8.0,0.0,0.0,0.0,0.0,0.0,0.0,0.0,0.0,0
14.0,-32.0,-21.0,3.0,3.0,-2.0,-35.0,7.0,0.0,0.0,0.0,0.0,0.0,0.0,0.0,0.0,0
-6.0,-49.0,-37.0,6.0,-3.0,-3.0,-35.0,7.0,0.0,0.0,0.0,0.0,0.0,0.0,0.0,0.0,0
-21.0,-38.0,-34.0,-1.0,-3.0,1.0,-16.0,0.0,0.0,0.0,0.0,0.0,0.0,0.0,0.0,0.0,0
-18.0,-33.0,-19.0,-3.0,-3.0,6.0,-12.0,6.0,0.0,0.0,0.0,0.0,0.0,0.0,0.0,0.0,0
-14.0,-37.0,8.0,8.0,0.0,8.0,3.0,9.0,0.0,0.0,0.0,0.0,0.0,0.0,0.0,0.0,0
-19.0,-28.0,34.0,12.0,11.0,3.0,23.0,2.0,0.0,0.0,0.0,0.0,0.0,0.0,0.0,0.0,0
-22.0,17.0,56.0,14.0,7.0,-1.0,21.0,-1.0,0.0,0.0,0.0,0.0,0.0,0.0,0.0,0.0,0
-33.0,69.0,93.0,23.0,2.0,6.0,31.0,-14.0,0.0,0.0,0.0,0.0,0.0,0.0,0.0,0.0,0
-14.0,87.0,107.0,28.0,2.0,4.0,36.0,-15.0,0.0,0.0,0.0,0.0,0.0,0.0,0.0,0.0,0
-1.0,40.0,16.0,-4.0,-5.0,-3.0,29.0,-21.0,0.0,0.0,0.0,0.0,0.0,0.0,0.0,0.0,0
-8.0,8.0,-67.0,-50.0,-10.0,-3.0,14.0,-17.0,0.0,0.0,0.0,0.0,0.0,0.0,0.0,0.0,0
-19.0,-31.0,-106.0,-60.0,-13.0,-11.0,8.0,-18.0,0.0,0.0,0.0,0.0,0.0,0.0,0.0,0.0,0
-28.0,-51.0,-100.0,-58.0,-20.0,-19.0,8.0,-21.0,0.0,0.0,0.0,0.0,0.0,0.0,0.0,0.0,0
-21.0,-53.0,-51.0,-30.0,-6.0,-12.0,-2.0,-5.0,0.0,0.0,0.0,0.0,0.0,0.0,0.0,0.0,0
3.0,-30.0,15.0,1.0,5.0,-5.0,-9.0,6.0,0.0,0.0,0.0,0.0,0.0,0.0,0.0,0.0,0
31.0,18.0,67.0,40.0,10.0,-11.0,-11.0,3.0,0.0,0.0,0.0,0.0,0.0,0.0,0.0,0.0,0
23.0,14.0,48.0,30.0,-1.0,-5.0,-15.0,9.0,0.0,0.0,0.0,0.0,0.0,0.0,0.0,0.0,0
16.0,-9.0,2.0,6.0,-10.0,-9.0,-24.0,12.0,0.0,0.0,0.0,0.0,0.0,0.0,0.0,0.0,0
17.0,6.0,-7.0,8.0,-11.0,-4.0,-32.0,6.0,0.0,0.0,0.0,0.0,0.0,0.0,0.0,0.0,0
24.0,30.0,7.0,19.0,6.0,5.0,-29.0,7.0,0.0,0.0,0.0,0.0,0.0,0.0,0.0,0.0,0
16.0,27.0,-4.0,21.0,2.0,6.0,-35.0,7.0,0.0,0.0,0.0,0.0,0.0,0.0,0.0,0.0,0
8.0,-3.0,-35.0,-9.0,-3.0,2.0,-33.0,8.0,0.0,0.0,0.0,0.0,0.0,0.0,0.0,0.0,0
12.0,-14.0,-26.0,-15.0,-4.0,3.0,-15.0,3.0,0.0,0.0,0.0,0.0,0.0,0.0,0.0,0.0,0
7.0,-19.0,-14.0,-8.0,1.0,9.0,-11.0,2.0,0.0,0.0,0.0,0.0,0.0,0.0,0.0,0.0,0
15.0,-27.0,-33.0,-19.0,-2.0,10.0,1.0,3.0,0.0,0.0,0.0,0.0,0.0,0.0,0.0,0.0,0
5.0,-24.0,-31.0,-26.0,-8.0,3.0,19.0,0.0,0.0,0.0,0.0,0.0,0.0,0.0,0.0,0.0,0
-30.0,-33.0,-6.0,-8.0,-7.0,-4.0,30.0,-4.0,0.0,0.0,0.0,0.0,0.0,0.0,0.0,0.0,0
-55.0,-22.0,29.0,12.0,3.0,-10.0,38.0,-6.0,0.0,0.0,0.0,0.0,0.0,0.0,0.0,0.0,0
-61.0,10.0,48.0,18.0,3.0,-1.0,36.0,-11.0,0.0,0.0,0.0,0.0,0.0,0.0,0.0,0.0,0
-41.0,42.0,44.0,19.0,7.0,0.0,25.0,-18.0,0.0,0.0,0.0,0.0,0.0,0.0,0.0,0.0,0
-27.0,30.0,35.0,13.0,14.0,-4.0,17.0,-19.0,0.0,0.0,0.0,0.0,0.0,0.0,0.0,0.0,0
-20.0,19.0,21.0,-3.0,6.0,-8.0,14.0,-22.0,0.0,0.0,0.0,0.0,0.0,0.0,0.0,0.0,0
-19.0,13.0,12.0,-10.0,-7.0,-2.0,7.0,-15.0,0.0,0.0,0.0,0.0,0.0,0.0,0.0,0.0,0
2.0,6.0,-3.0,-12.0,-13.0,0.0,-1.0,0.0,0.0,0.0,0.0,0.0,0.0,0.0,0.0,0.0,0
29.0,7.0,-17.0,-15.0,-7.0,-9.0,-15.0,-2.0,0.0,0.0,0.0,0.0,0.0,0.0,0.0,0.0,0
46.0,4.0,-25.0,-14.0,-10.0,-7.0,-16.0,-7.0,0.0,0.0,0.0,0.0,0.0,0.0,0.0,0.0,0
37.0,-6.0,-33.0,-18.0,-13.0,-9.0,-13.0,-10.0,0.0,0.0,0.0,0.0,0.0,0.0,0.0,0.0,0
18.0,-33.0,-42.0,-18.0,-15.0,-15.0,-32.0,3.0,0.0,0.0,0.0,0.0,0.0,0.0,0.0,0.0,0
6.0,-48.0,-38.0,-13.0,-11.0,-10.0,-33.0,17.0,0.0,0.0,0.0,0.0,0.0,0.0,0.0,0.0,0
28.0,-26.0,-27.0,4.0,-5.0,-5.0,-24.0,17.0,0.0,0.0,0.0,0.0,0.0,0.0,0.0,0.0,0
49.0,0.0,-22.0,1.0,6.0,-1.0,-33.0,14.0,0.0,0.0,0.0,0.0,0.0,0.0,0.0,0.0,0
16.0,5.0,-5.0,10.0,8.0,8.0,-32.0,13.0,0.0,0.0,0.0,0.0,0.0,0.0,0.0,0.0,0
-14.0,4.0,6.0,14.0,4.0,10.0,-13.0,7.0,0.0,0.0,0.0,0.0,0.0,0.0,0.0,0.0,0
-12.0,7.0,16.0,9.0,7.0,-3.0,-10.0,8.0,0.0,0.0,0.0,0.0,0.0,0.0,0.0,0.0,0
-1.0,5.0,3.0,9.0,-2.0,-2.0,-5.0,8.0,0.0,0.0,0.0,0.0,0.0,0.0,0.0,0.0,0
-25.0,-5.0,6.0,10.0,3.0,9.0,11.0,-1.0,0.0,0.0,0.0,0.0,0.0,0.0,0.0,0.0,0
-46.0,-6.0,6.0,11.0,3.0,8.0,26.0,-6.0,0.0,0.0,0.0,0.0,0.0,0.0,0.0,0.0,0
-63.0,-16.0,25.0,0.0,0.0,2.0,43.0,-14.0,0.0,0.0,0.0,0.0,0.0,0.0,0.0,0.0,0
-37.0,-3.0,42.0,1.0,0.0,6.0,45.0,-12.0,0.0,0.0,0.0,0.0,0.0,0.0,0.0,0.0,0
-18.0,-5.0,31.0,-3.0,1.0,-3.0,22.0,-15.0,0.0,0.0,0.0,0.0,0.0,0.0,0.0,0.0,0
-1.0,15.0,10.0,-15.0,-6.0,-8.0,10.0,-23.0,0.0,0.0,0.0,0.0,0.0,0.0,0.0,0.0,0
8.0,39.0,-1.0,-34.0,-15.0,-14.0,2.0,-18.0,0.0,0.0,0.0,0.0,0.0,0.0,0.0,0.0,0
-3.0,33.0,-10.0,-30.0,-11.0,-14.0,1.0,-23.0,0.0,0.0,0.0,0.0,0.0,0.0,0.0,0.0,0
-18.0,18.0,-13.0,-7.0,2.0,-10.0,-5.0,-10.0,0.0,0.0,0.0,0.0,0.0,0.0,0.0,0.0,0
6.0,6.0,-20.0,0.0,-5.0,-13.0,-8.0,8.0,0.0,0.0,0.0,0.0,0.0,0.0,0.0,0.0,0
29.0,-25.0,-35.0,-6.0,-9.0,-6.0,-6.0,8.0,0.0,0.0,0.0,0.0,0.0,0.0,0.0,0.0,0
25.0,-43.0,-49.0,-9.0,-3.0,1.0,-13.0,1.0,0.0,0.0,0.0,0.0,0.0,0.0,0.0,0.0,0
39.0,-61.0,-39.0,-2.0,3.0,-9.0,-26.0,15.0,0.0,0.0,0.0,0.0,0.0,0.0,0.0,0.0,0
3.0,-60.0,-12.0,18.0,4.0,-1.0,-23.0,19.0,0.0,0.0,0.0,0.0,0.0,0.0,0.0,0.0,0
-39.0,-30.0,13.0,25.0,3.0,7.0,-25.0,9.0,0.0,0.0,0.0,0.0,0.0,0.0,0.0,0.0,0
-24.0,-5.0,18.0,22.0,1.0,-1.0,-39.0,2.0,0.0,0.0,0.0,0.0,0.0,0.0,0.0,0.0,0
20.0,24.0,13.0,13.0,-3.0,1.0,-44.0,-1.0,0.0,0.0,0.0,0.0,0.0,0.0,0.0,0.0,0
38.0,44.0,8.0,1.0,-10.0,0.0,-21.0,0.0,0.0,0.0,0.0,0.0,0.0,0.0,0.0,0.0,0
53.0,47.0,-16.0,-10.0,-5.0,0.0,-12.0,3.0,0.0,0.0,0.0,0.0,0.0,0.0,0.0,0.0,0
42.0,29.0,-21.0,-18.0,-2.0,2.0,3.0,1.0,0.0,0.0,0.0,0.0,0.0,0.0,0.0,0.0,0
-3.0,-1.0,-19.0,-20.0,-6.0,1.0,19.0,-1.0,0.0,0.0,0.0,0.0,0.0,0.0,0.0,0.0,0
-19.0,-6.0,8.0,-8.0,-1.0,0.0,27.0,-4.0,0.0,0.0,0.0,0.0,0.0,0.0,0.0,0.0,0
-38.0,-14.0,29.0,-1.0,-2.0,4.0,35.0,-11.0,0.0,0.0,0.0,0.0,0.0,0.0,0.0,0.0,0
-64.0,-20.0,31.0,-1.0,0.0,0.0,26.0,-17.0,0.0,0.0,0.0,0.0,0.0,0.0,0.0,0.0,0
-54.0,-9.0,22.0,1.0,0.0,-5.0,15.0,-20.0,0.0,0.0,0.0,0.0,0.0,0.0,0.0,0.0,0
-27.0,6.0,5.0,-5.0,2.0,-6.0,17.0,-18.0,0.0,0.0,0.0,0.0,0.0,0.0,0.0,0.0,0
5.0,24.0,8.0,1.0,-3.0,-7.0,19.0,-14.0,0.0,0.0,0.0,0.0,0.0,0.0,0.0,0.0,0
11.0,17.0,9.0,-5.0,-7.0,-6.0,19.0,0.0,0.0,0.0,0.0,0.0,0.0,0.0,0.0,0.0,0
-29.0,-17.0,-29.0,-23.0,-9.0,-1.0,3.0,9.0,0.0,0.0,0.0,0.0,0.0,0.0,0.0,0.0,0
-55.0,-41.0,-45.0,-17.0,-3.0,-1.0,-6.0,1.0,0.0,0.0,0.0,0.0,0.0,0.0,0.0,0.0,0
-54.0,-41.0,-27.0,-3.0,-1.0,-4.0,-4.0,-4.0,0.0,0.0,0.0,0.0,0.0,0.0,0.0,0.0,0
-11.0,-8.0,10.0,16.0,4.0,-14.0,-13.0,-7.0,0.0,0.0,0.0,0.0,0.0,0.0,0.0,0.0,0
59.0,6.0,6.0,15.0,-3.0,-19.0,-39.0,-6.0,0.0,0.0,0.0,0.0,0.0,0.0,0.0,0.0,0
66.0,10.0,-7.0,3.0,-6.0,-7.0,-44.0,-3.0,0.0,0.0,0.0,0.0,0.0,0.0,0.0,0.0,0
72.0,25.0,2.0,-2.0,-6.0,2.0,-30.0,10.0,0.0,0.0,0.0,0.0,0.0,0.0,0.0,0.0,0
64.0,4.0,-4.0,-4.0,-2.0,4.0,-27.0,12.0,0.0,0.0,0.0,0.0,0.0,0.0,0.0,0.0,0
32.0,-32.0,-41.0,-7.0,-8.0,1.0,-28.0,16.0,0.0,0.0,0.0,0.0,0.0,0.0,0.0,0.0,0
6.0,-27.0,-43.0,-7.0,-3.0,-4.0,-19.0,12.0,0.0,0.0,0.0,0.0,0.0,0.0,0.0,0.0,0
2.0,-2.0,-23.0,2.0,2.0,3.0,-8.0,4.0,0.0,0.0,0.0,0.0,0.0,0.0,0.0,0.0,0
-3.0,12.0,-9.0,-5.0,0.0,4.0,6.0,1.0,0.0,0.0,0.0,0.0,0.0,0.0,0.0,0.0,0
-31.0,17.0,17.0,-1.0,3.0,7.0,17.0,-2.0,0.0,0.0,0.0,0.0,0.0,0.0,0.0,0.0,0
-60.0,17.0,42.0,6.0,4.0,9.0,23.0,-7.0,0.0,0.0,0.0,0.0,0.0,0.0,0.0,0.0,0
-69.0,-3.0,32.0,4.0,3.0,6.0,33.0,-12.0,0.0,0.0,0.0,0.0,0.0,0.0,0.0,0.0,0
-57.0,-9.0,14.0,-4.0,6.0,-3.0,36.0,-14.0,0.0,0.0,0.0,0.0,0.0,0.0,0.0,0.0,0
-40.0,0.0,14.0,-11.0,-5.0,-9.0,22.0,-19.0,0.0,0.0,0.0,0.0,0.0,0.0,0.0,0.0,0
-26.0,14.0,25.0,-8.0,-12.0,-16.0,13.0,-25.0,0.0,0.0,0.0,0.0,0.0,0.0,0.0,0.0,0
-32.0,12.0,30.0,-2.0,-13.0,-15.0,9.0,-21.0,0.0,0.0,0.0,0.0,0.0,0.0,0.0,0.0,0
-5.0,13.0,23.0,5.0,-3.0,-7.0,7.0,-6.0,0.0,0.0,0.0,0.0,0.0,0.0,0.0,0.0,0
59.0,12.0,2.0,0.0,2.0,-6.0,-4.0,3.0,0.0,0.0,0.0,0.0,0.0,0.0,0.0,0.0,0
90.0,-13.0,-30.0,-18.0,-5.0,-3.0,-1.0,1.0,0.0,0.0,0.0,0.0,0.0,0.0,0.0,0.0,0
63.0,-24.0,-30.0,-22.0,-4.0,-4.0,-3.0,1.0,0.0,0.0,0.0,0.0,0.0,0.0,0.0,0.0,0
27.0,-22.0,-18.0,-3.0,6.0,-4.0,-6.0,7.0,0.0,0.0,0.0,0.0,0.0,0.0,0.0,0.0,0
-3.0,-37.0,-40.0,2.0,0.0,-6.0,-28.0,10.0,0.0,0.0,0.0,0.0,0.0,0.0,0.0,0.0,0
-19.0,-42.0,-46.0,0.0,-5.0,-3.0,-36.0,11.0,0.0,0.0,0.0,0.0,0.0,0.0,0.0,0.0,0
-23.0,-25.0,-38.0,-8.0,-3.0,-1.0,-29.0,-4.0,0.0,0.0,0.0,0.0,0.0,0.0,0.0,0.0,0
-14.0,-6.0,-25.0,-5.0,-9.0,-5.0,-36.0,0.0,0.0,0.0,0.0,0.0,0.0,0.0,0.0,0.0,0
-27.0,2.0,-27.0,-7.0,-15.0,-3.0,-31.0,3.0,0.0,0.0,0.0,0.0,0.0,0.0,0.0,0.0,0
-15.0,21.0,-4.0,2.0,-5.0,-9.0,-24.0,6.0,0.0,0.0,0.0,0.0,0.0,0.0,0.0,0.0,0
6.0,52.0,28.0,16.0,5.0,1.0,-18.0,5.0,0.0,0.0,0.0,0.0,0.0,0.0,0.0,0.0,0
15.0,53.0,45.0,20.0,6.0,11.0,0.0,5.0,0.0,0.0,0.0,0.0,0.0,0.0,0.0,0.0,0
1.0,9.0,51.0,18.0,8.0,5.0,19.0,1.0,0.0,0.0,0.0,0.0,0.0,0.0,0.0,0.0,0
-10.0,-29.0,56.0,16.0,5.0,11.0,34.0,1.0,0.0,0.0,0.0,0.0,0.0,0.0,0.0,0.0,0
-8.0,-26.0,43.0,8.0,4.0,5.0,43.0,-9.0,0.0,0.0,0.0,0.0,0.0,0.0,0.0,0.0,0
-10.0,-33.0,11.0,-8.0,-4.0,-10.0,31.0,-16.0,0.0,0.0,0.0,0.0,0.0,0.0,0.0,0.0,0
-3.0,-25.0,-37.0,-36.0,-12.0,-12.0,16.0,-21.0,0.0,0.0,0.0,0.0,0.0,0.0,0.0,0.0,0
-10.0,4.0,-45.0,-42.0,-17.0,-7.0,11.0,-21.0,0.0,0.0,0.0,0.0,0.0,0.0,0.0,0.0,0
-17.0,39.0,-34.0,-21.0,-12.0,-6.0,13.0,-16.0,0.0,0.0,0.0,0.0,0.0,0.0,0.0,0.0,0
-16.0,46.0,-26.0,-14.0,-3.0,-8.0,12.0,-12.0,0.0,0.0,0.0,0.0,0.0,0.0,0.0,0.0,0
-2.0,33.0,-8.0,-7.0,-4.0,-8.0,5.0,-8.0,0.0,0.0,0.0,0.0,0.0,0.0,0.0,0.0,0
-12.0,-11.0,23.0,6.0,-1.0,-3.0,-8.0,-5.0,0.0,0.0,0.0,0.0,0.0,0.0,0.0,0.0,0
-37.0,-94.0,16.0,6.0,-2.0,-2.0,-10.0,-7.0,0.0,0.0,0.0,0.0,0.0,0.0,0.0,0.0,0
-49.0,-125.0,2.0,7.0,5.0,-6.0,-16.0,0.0,0.0,0.0,0.0,0.0,0.0,0.0,0.0,0.0,0
2.0,-39.0,-8.0,9.0,6.0,-7.0,-33.0,15.0,0.0,0.0,0.0,0.0,0.0,0.0,0.0,0.0,0
64.0,35.0,-9.0,5.0,-3.0,-1.0,-33.0,15.0,0.0,0.0,0.0,0.0,0.0,0.0,0.0,0.0,0
48.0,37.0,-10.0,4.0,-3.0,-7.0,-32.0,8.0,0.0,0.0,0.0,0.0,0.0,0.0,0.0,0.0,0
36.0,70.0,-33.0,-3.0,-9.0,-12.0,-31.0,11.0,0.0,0.0,0.0,0.0,0.0,0.0,0.0,0.0,0
66.0,101.0,-42.0,-5.0,-12.0,-3.0,-26.0,11.0,0.0,0.0,0.0,0.0,0.0,0.0,0.0,0.0,0
60.0,63.0,-25.0,1.0,-6.0,7.0,-19.0,10.0,0.0,0.0,0.0,0.0,0.0,0.0,0.0,0.0,0
14.0,-10.0,-1.0,10.0,1.0,10.0,-10.0,7.0,0.0,0.0,0.0,0.0,0.0,0.0,0.0,0.0,0
-28.0,-62.0,18.0,7.0,9.0,11.0,5.0,-3.0,0.0,0.0,0.0,0.0,0.0,0.0,0.0,0.0,0
-48.0,-65.0,27.0,-8.0,2.0,4.0,15.0,-11.0,0.0,0.0,0.0,0.0,0.0,0.0,0.0,0.0,0
-61.0,-61.0,25.0,-9.0,-2.0,1.0,23.0,-15.0,0.0,0.0,0.0,0.0,0.0,0.0,0.0,0.0,0
-64.0,-51.0,4.0,-14.0,-6.0,4.0,30.0,-13.0,0.0,0.0,0.0,0.0,0.0,0.0,0.0,0.0,0
-59.0,-33.0,-13.0,-29.0,-7.0,-1.0,34.0,-12.0,0.0,0.0,0.0,0.0,0.0,0.0,0.0,0.0,0
-46.0,-1.0,-7.0,-16.0,-6.0,-7.0,21.0,-14.0,0.0,0.0,0.0,0.0,0.0,0.0,0.0,0.0,0
-8.0,34.0,10.0,3.0,-2.0,-8.0,14.0,-9.0,0.0,0.0,0.0,0.0,0.0,0.0,0.0,0.0,0
14.0,56.0,20.0,7.0,1.0,-9.0,11.0,-13.0,0.0,0.0,0.0,0.0,0.0,0.0,0.0,0.0,0
7.0,43.0,29.0,22.0,2.0,-10.0,12.0,-8.0,0.0,0.0,0.0,0.0,0.0,0.0,0.0,0.0,0
2.0,32.0,35.0,20.0,8.0,-3.0,3.0,-6.0,0.0,0.0,0.0,0.0,0.0,0.0,0.0,0.0,0
13.0,17.0,19.0,14.0,1.0,2.0,-6.0,0.0,0.0,0.0,0.0,0.0,0.0,0.0,0.0,0.0,0
24.0,14.0,-10.0,4.0,-9.0,-7.0,-14.0,6.0,0.0,0.0,0.0,0.0,0.0,0.0,0.0,0.0,0
12.0,-5.0,-23.0,-5.0,-9.0,-5.0,-9.0,-8.0,0.0,0.0,0.0,0.0,0.0,0.0,0.0,0.0,0
14.0,-30.0,-29.0,-5.0,-5.0,-8.0,-32.0,-1.0,0.0,0.0,0.0,0.0,0.0,0.0,0.0,0.0,0
17.0,-35.0,-28.0,-12.0,-7.0,-9.0,-39.0,6.0,0.0,0.0,0.0,0.0,0.0,0.0,0.0,0.0,0
38.0,-32.0,-44.0,-43.0,-18.0,-9.0,-26.0,1.0,0.0,0.0,0.0,0.0,0.0,0.0,0.0,0.0,0
58.0,-38.0,-68.0,-44.0,-31.0,-10.0,-34.0,9.0,0.0,0.0,0.0,0.0,0.0,0.0,0.0,0.0,0
25.0,-29.0,-44.0,-18.0,-10.0,-1.0,-29.0,18.0,0.0,0.0,0.0,0.0,0.0,0.0,0.0,0.0,0
-12.0,-17.0,-11.0,3.0,11.0,5.0,-18.0,18.0,0.0,0.0,0.0,0.0,0.0,0.0,0.0,0.0,0
-30.0,0.0,5.0,10.0,15.0,10.0,-5.0,11.0,0.0,0.0,0.0,0.0,0.0,0.0,0.0,0.0,0
-42.0,13.0,30.0,18.0,7.0,11.0,6.0,3.0,0.0,0.0,0.0,0.0,0.0,0.0,0.0,0.0,0
-51.0,13.0,21.0,8.0,5.0,12.0,18.0,-4.0,0.0,0.0,0.0,0.0,0.0,0.0,0.0,0.0,0
-33.0,6.0,-6.0,-1.0,6.0,8.0,20.0,-11.0,0.0,0.0,0.0,0.0,0.0,0.0,0.0,0.0,0
-35.0,-6.0,0.0,-4.0,2.0,4.0,28.0,-13.0,0.0,0.0,0.0,0.0,0.0,0.0,0.0,0.0,0
-33.0,5.0,21.0,7.0,-2.0,2.0,35.0,-22.0,0.0,0.0,0.0,0.0,0.0,0.0,0.0,0.0,0
-12.0,21.0,42.0,17.0,1.0,-6.0,23.0,-19.0,0.0,0.0,0.0,0.0,0.0,0.0,0.0,0.0,0
-12.0,27.0,54.0,23.0,-2.0,-10.0,17.0,-14.0,0.0,0.0,0.0,0.0,0.0,0.0,0.0,0.0,0
-2.0,21.0,56.0,12.0,-1.0,-14.0,13.0,-14.0,0.0,0.0,0.0,0.0,0.0,0.0,0.0,0.0,0
54.0,22.0,23.0,-3.0,-5.0,-12.0,4.0,-9.0,0.0,0.0,0.0,0.0,0.0,0.0,0.0,0.0,0
65.0,18.0,-1.0,-12.0,-13.0,-15.0,-6.0,-7.0,0.0,0.0,0.0,0.0,0.0,0.0,0.0,0.0,0
18.0,14.0,-3.0,-11.0,-4.0,-1.0,-7.0,4.0,0.0,0.0,0.0,0.0,0.0,0.0,0.0,0.0,0
-16.0,-17.0,-35.0,-19.0,-3.0,7.0,-2.0,6.0,0.0,0.0,0.0,0.0,0.0,0.0,0.0,0.0,0
-26.0,-58.0,-81.0,-35.0,-12.0,1.0,-12.0,4.0,0.0,0.0,0.0,0.0,0.0,0.0,0.0,0.0,0
-16.0,-63.0,-85.0,-27.0,-9.0,-12.0,-39.0,6.0,0.0,0.0,0.0,0.0,0.0,0.0,0.0,0.0,0
-11.0,-49.0,-57.0,-21.0,-8.0,-12.0,-40.0,2.0,0.0,0.0,0.0,0.0,0.0,0.0,0.0,0.0,0
-11.0,-18.0,-15.0,-10.0,-2.0,-1.0,-31.0,-6.0,0.0,0.0,0.0,0.0,0.0,0.0,0.0,0.0,0
5.0,-5.0,9.0,7.0,-1.0,-4.0,-33.0,4.0,0.0,0.0,0.0,0.0,0.0,0.0,0.0,0.0,0
13.0,0.0,22.0,21.0,-1.0,-4.0,-27.0,8.0,0.0,0.0,0.0,0.0,0.0,0.0,0.0,0.0,0
33.0,14.0,23.0,24.0,1.0,-3.0,-18.0,13.0,0.0,0.0,0.0,0.0,0.0,0.0,0.0,0.0,0
26.0,16.0,-1.0,12.0,11.0,7.0,-11.0,12.0,0.0,0.0,0.0,0.0,0.0,0.0,0.0,0.0,0
-3.0,14.0,0.0,8.0,10.0,11.0,4.0,10.0,0.0,0.0,0.0,0.0,0.0,0.0,0.0,0.0,0
-12.0,13.0,8.0,9.0,4.0,9.0,21.0,2.0,0.0,0.0,0.0,0.0,0.0,0.0,0.0,0.0,0
-19.0,10.0,8.0,-4.0,-4.0,4.0,23.0,-12.0,0.0,0.0,0.0,0.0,0.0,0.0,0.0,0.0,0
-20.0,22.0,26.0,-10.0,-9.0,0.0,29.0,-24.0,0.0,0.0,0.0,0.0,0.0,0.0,0.0,0.0,0
-26.0,22.0,48.0,1.0,-2.0,-7.0,40.0,-13.0,0.0,0.0,0.0,0.0,0.0,0.0,0.0,0.0,0
-18.0,20.0,51.0,11.0,0.0,-9.0,26.0,-4.0,0.0,0.0,0.0,0.0,0.0,0.0,0.0,0.0,0
10.0,21.0,22.0,12.0,4.0,0.0,13.0,-19.0,0.0,0.0,0.0,0.0,0.0,0.0,0.0,0.0,0
7.0,-1.0,-13.0,4.0,7.0,1.0,15.0,-18.0,0.0,0.0,0.0,0.0,0.0,0.0,0.0,0.0,0
-29.0,-9.0,-29.0,-22.0,-8.0,-6.0,10.0,-12.0,0.0,0.0,0.0,0.0,0.0,0.0,0.0,0.0,0
-33.0,-37.0,-55.0,-39.0,-13.0,-15.0,-14.0,-11.0,0.0,0.0,0.0,0.0,0.0,0.0,0.0,0.0,0
-34.0,-73.0,-62.0,-41.0,-17.0,-16.0,-18.0,-9.0,0.0,0.0,0.0,0.0,0.0,0.0,0.0,0.0,0
-18.0,-63.0,-29.0,-24.0,-13.0,-12.0,-8.0,-5.0,0.0,0.0,0.0,0.0,0.0,0.0,0.0,0.0,0
11.0,-19.0,13.0,7.0,2.0,-8.0,-6.0,9.0,0.0,0.0,0.0,0.0,0.0,0.0,0.0,0.0,0
16.0,1.0,8.0,11.0,8.0,5.0,-17.0,21.0,0.0,0.0,0.0,0.0,0.0,0.0,0.0,0.0,0
7.0,12.0,4.0,5.0,-1.0,4.0,-23.0,14.0,0.0,0.0,0.0,0.0,0.0,0.0,0.0,0.0,0
20.0,37.0,4.0,-3.0,-12.0,-5.0,-31.0,0.0,0.0,0.0,0.0,0.0,0.0,0.0,0.0,0.0,0
32.0,45.0,-8.0,-2.0,-13.0,-13.0,-38.0,1.0,0.0,0.0,0.0,0.0,0.0,0.0,0.0,0.0,0
49.0,42.0,-4.0,16.0,-6.0,-6.0,-41.0,9.0,0.0,0.0,0.0,0.0,0.0,0.0,0.0,0.0,0
55.0,22.0,-8.0,11.0,7.0,11.0,-22.0,10.0,0.0,0.0,0.0,0.0,0.0,0.0,0.0,0.0,0
27.0,-25.0,-36.0,-7.0,2.0,6.0,-15.0,-1.0,0.0,0.0,0.0,0.0,0.0,0.0,0.0,0.0,0
-15.0,-33.0,-32.0,-4.0,1.0,4.0,-2.0,-7.0,0.0,0.0,0.0,0.0,0.0,0.0,0.0,0.0,0
-15.0,-33.0,10.0,13.0,5.0,5.0,18.0,-6.0,0.0,0.0,0.0,0.0,0.0,0.0,0.0,0.0,0
-2.0,-30.0,35.0,19.0,15.0,6.0,30.0,0.0,0.0,0.0,0.0,0.0,0.0,0.0,0.0,0.0,0
-34.0,-21.0,50.0,13.0,15.0,10.0,42.0,-2.0,0.0,0.0,0.0,0.0,0.0,0.0,0.0,0.0,0
-72.0,-4.0,49.0,-1.0,2.0,-2.0,37.0,-19.0,0.0,0.0,0.0,0.0,0.0,0.0,0.0,0.0,0
-58.0,30.0,24.0,-4.0,-7.0,-11.0,17.0,-19.0,0.0,0.0,0.0,0.0,0.0,0.0,0.0,0.0,0
-45.0,42.0,-14.0,-3.0,-11.0,-5.0,12.0,-14.0,0.0,0.0,0.0,0.0,0.0,0.0,0.0,0.0,0
-30.0,24.0,-48.0,-22.0,-10.0,-3.0,15.0,-7.0,0.0,0.0,0.0,0.0,0.0,0.0,0.0,0.0,0
-7.0,14.0,-36.0,-32.0,-14.0,-7.0,8.0,-4.0,0.0,0.0,0.0,0.0,0.0,0.0,0.0,0.0,0
24.0,-4.0,-12.0,-24.0,-13.0,-10.0,-3.0,-4.0,0.0,0.0,0.0,0.0,0.0,0.0,0.0,0.0,0
35.0,-8.0,9.0,-8.0,-1.0,-1.0,-7.0,-8.0,0.0,0.0,0.0,0.0,0.0,0.0,0.0,0.0,0
20.0,-4.0,28.0,1.0,-6.0,-2.0,-12.0,-8.0,0.0,0.0,0.0,0.0,0.0,0.0,0.0,0.0,0
20.0,-8.0,17.0,-3.0,-6.0,-10.0,-17.0,-7.0,0.0,0.0,0.0,0.0,0.0,0.0,0.0,0.0,0
24.0,-26.0,-17.0,-3.0,-2.0,-13.0,-35.0,2.0,0.0,0.0,0.0,0.0,0.0,0.0,0.0,0.0,0
9.0,-47.0,-38.0,2.0,-2.0,-6.0,-35.0,7.0,0.0,0.0,0.0,0.0,0.0,0.0,0.0,0.0,0
3.0,-33.0,-33.0,5.0,6.0,3.0,-15.0,5.0,0.0,0.0,0.0,0.0,0.0,0.0,0.0,0.0,0
17.0,-6.0,-17.0,5.0,6.0,-1.0,-30.0,12.0,0.0,0.0,0.0,0.0,0.0,0.0,0.0,0.0,0
16.0,10.0,-4.0,7.0,-6.0,-2.0,-37.0,15.0,0.0,0.0,0.0,0.0,0.0,0.0,0.0,0.0,0
2.0,16.0,1.0,3.0,-5.0,-3.0,-23.0,3.0,0.0,0.0,0.0,0.0,0.0,0.0,0.0,0.0,0
17.0,13.0,-14.0,-2.0,0.0,3.0,-10.0,6.0,0.0,0.0,0.0,0.0,0.0,0.0,0.0,0.0,0
29.0,17.0,-17.0,-6.0,-6.0,5.0,4.0,7.0,0.0,0.0,0.0,0.0,0.0,0.0,0.0,0.0,0
-10.0,5.0,5.0,0.0,-5.0,3.0,11.0,-5.0,0.0,0.0,0.0,0.0,0.0,0.0,0.0,0.0,0
-55.0,-21.0,-1.0,0.0,3.0,10.0,23.0,-10.0,0.0,0.0,0.0,0.0,0.0,0.0,0.0,0.0,0
-75.0,-20.0,30.0,8.0,12.0,10.0,40.0,-7.0,0.0,0.0,0.0,0.0,0.0,0.0,0.0,0.0,0
-49.0,6.0,63.0,15.0,7.0,-3.0,43.0,-11.0,0.0,0.0,0.0,0.0,0.0,0.0,0.0,0.0,0
-19.0,-3.0,34.0,-8.0,-8.0,-11.0,18.0,-17.0,0.0,0.0,0.0,0.0,0.0,0.0,0.0,0.0,0
-23.0,-19.0,-26.0,-38.0,-21.0,-15.0,16.0,-16.0,0.0,0.0,0.0,0.0,0.0,0.0,0.0,0.0,0
-15.0,-8.0,-28.0,-39.0,-24.0,-10.0,14.0,-20.0,0.0,0.0,0.0,0.0,0.0,0.0,0.0,0.0,0
7.0,17.0,-11.0,-22.0,-8.0,-12.0,7.0,-13.0,0.0,0.0,0.0,0.0,0.0,0.0,0.0,0.0,0
28.0,33.0,10.0,7.0,2.0,-13.0,-4.0,-7.0,0.0,0.0,0.0,0.0,0.0,0.0,0.0,0.0,0
25.0,7.0,-2.0,11.0,6.0,-7.0,-16.0,-9.0,0.0,0.0,0.0,0.0,0.0,0.0,0.0,0.0,0
11.0,1.0,5.0,18.0,14.0,7.0,-6.0,2.0,0.0,0.0,0.0,0.0,0.0,0.0,0.0,0.0,0
11.0,9.0,9.0,19.0,5.0,7.0,-10.0,9.0,0.0,0.0,0.0,0.0,0.0,0.0,0.0,0.0,0
13.0,4.0,-5.0,4.0,-1.0,-5.0,-29.0,10.0,0.0,0.0,0.0,0.0,0.0,0.0,0.0,0.0,0
22.0,-19.0,-30.0,-7.0,1.0,-7.0,-29.0,8.0,0.0,0.0,0.0,0.0,0.0,0.0,0.0,0.0,0
19.0,-23.0,-24.0,-7.0,-7.0,-1.0,-16.0,6.0,0.0,0.0,0.0,0.0,0.0,0.0,0.0,0.0,0
20.0,-22.0,-16.0,-12.0,-12.0,-3.0,-24.0,5.0,0.0,0.0,0.0,0.0,0.0,0.0,0.0,0.0,0
15.0,-28.0,-29.0,-9.0,-13.0,1.0,-38.0,6.0,0.0,0.0,0.0,0.0,0.0,0.0,0.0,0.0,0
-4.0,-18.0,-23.0,-3.0,-7.0,-5.0,-22.0,3.0,0.0,0.0,0.0,0.0,0.0,0.0,0.0,0.0,0
-9.0,-12.0,-18.0,7.0,2.0,-2.0,-17.0,13.0,0.0,0.0,0.0,0.0,0.0,0.0,0.0,0.0,0
-22.0,-8.0,-4.0,12.0,6.0,1.0,-5.0,11.0,0.0,0.0,0.0,0.0,0.0,0.0,0.0,0.0,0
-33.0,-1.0,11.0,11.0,5.0,11.0,13.0,-1.0,0.0,0.0,0.0,0.0,0.0,0.0,0.0,0.0,0
-24.0,10.0,19.0,0.0,0.0,11.0,27.0,-10.0,0.0,0.0,0.0,0.0,0.0,0.0,0.0,0.0,0
-20.0,25.0,46.0,5.0,5.0,3.0,39.0,-19.0,0.0,0.0,0.0,0.0,0.0,0.0,0.0,0.0,0
-22.0,28.0,54.0,16.0,10.0,1.0,41.0,-19.0,0.0,0.0,0.0,0.0,0.0,0.0,0.0,0.0,0
-15.0,12.0,29.0,-11.0,-4.0,-7.0,22.0,-17.0,0.0,0.0,0.0,0.0,0.0,0.0,0.0,0.0,0
-24.0,-12.0,3.0,-32.0,-16.0,-13.0,17.0,-15.0,0.0,0.0,0.0,0.0,0.0,0.0,0.0,0.0,0
-21.0,6.0,-2.0,-25.0,-14.0,-14.0,14.0,-17.0,0.0,0.0,0.0,0.0,0.0,0.0,0.0,0.0,0
7.0,30.0,12.0,-15.0,-3.0,-12.0,5.0,-9.0,0.0,0.0,0.0,0.0,0.0,0.0,0.0,0.0,0
16.0,32.0,3.0,-2.0,0.0,-8.0,-1.0,-1.0,0.0,0.0,0.0,0.0,0.0,0.0,0.0,0.0,0
-2.0,-10.0,-34.0,-10.0,-7.0,-5.0,-13.0,-9.0,0.0,0.0,0.0,0.0,0.0,0.0,0.0,0.0,0
-8.0,-32.0,-64.0,-21.0,-11.0,-4.0,-11.0,-7.0,0.0,0.0,0.0,0.0,0.0,0.0,0.0,0.0,0
0.0,-25.0,-39.0,-2.0,0.0,-4.0,-14.0,1.0,0.0,0.0,0.0,0.0,0.0,0.0,0.0,0.0,0
13.0,-25.0,-16.0,7.0,7.0,-10.0,-28.0,10.0,0.0,0.0,0.0,0.0,0.0,0.0,0.0,0.0,0
33.0,-42.0,-17.0,8.0,3.0,-2.0,-32.0,10.0,0.0,0.0,0.0,0.0,0.0,0.0,0.0,0.0,0
37.0,-42.0,-29.0,4.0,2.0,-1.0,-28.0,-3.0,0.0,0.0,0.0,0.0,0.0,0.0,0.0,0.0,0
38.0,-23.0,-24.0,5.0,-2.0,-3.0,-25.0,7.0,0.0,0.0,0.0,0.0,0.0,0.0,0.0,0.0,0
39.0,26.0,-7.0,10.0,-6.0,-2.0,-25.0,16.0,0.0,0.0,0.0,0.0,0.0,0.0,0.0,0.0,0
6.0,50.0,3.0,4.0,-2.0,-5.0,-19.0,14.0,0.0,0.0,0.0,0.0,0.0,0.0,0.0,0.0,0
-23.0,49.0,22.0,10.0,-7.0,-2.0,-16.0,12.0,0.0,0.0,0.0,0.0,0.0,0.0,0.0,0.0,0
-39.0,27.0,53.0,21.0,-3.0,8.0,-3.0,0.0,0.0,0.0,0.0,0.0,0.0,0.0,0.0,0.0,0
-43.0,-7.0,48.0,10.0,4.0,13.0,13.0,-3.0,0.0,0.0,0.0,0.0,0.0,0.0,0.0,0.0,0
-21.0,-37.0,22.0,-3.0,2.0,8.0,26.0,-8.0,0.0,0.0,0.0,0.0,0.0,0.0,0.0,0.0,0
-30.0,-59.0,-17.0,-7.0,2.0,1.0,42.0,-16.0,0.0,0.0,0.0,0.0,0.0,0.0,0.0,0.0,0
-32.0,-48.0,-22.0,-23.0,2.0,0.0,41.0,-21.0,0.0,0.0,0.0,0.0,0.0,0.0,0.0,0.0,0
-35.0,-27.0,-22.0,-22.0,-3.0,-6.0,20.0,-13.0,0.0,0.0,0.0,0.0,0.0,0.0,0.0,0.0,0
-31.0,31.0,-10.0,-22.0,-9.0,-9.0,13.0,-12.0,0.0,0.0,0.0,0.0,0.0,0.0,0.0,0.0,0
-26.0,77.0,18.0,-5.0,-6.0,-6.0,11.0,-16.0,0.0,0.0,0.0,0.0,0.0,0.0,0.0,0.0,0
-1.0,68.0,30.0,11.0,4.0,-8.0,3.0,-19.0,0.0,0.0,0.0,0.0,0.0,0.0,0.0,0.0,0
49.0,52.0,17.0,2.0,-1.0,-17.0,-7.0,-13.0,0.0,0.0,0.0,0.0,0.0,0.0,0.0,0.0,0
89.0,32.0,23.0,12.0,-2.0,-2.0,-5.0,2.0,0.0,0.0,0.0,0.0,0.0,0.0,0.0,0.0,0
61.0,-10.0,25.0,4.0,-6.0,3.0,-4.0,6.0,0.0,0.0,0.0,0.0,0.0,0.0,0.0,0.0,0
10.0,-59.0,-24.0,-14.0,-12.0,-13.0,-16.0,1.0,0.0,0.0,0.0,0.0,0.0,0.0,0.0,0.0,0
-23.0,-84.0,-56.0,-14.0,-6.0,-15.0,-30.0,9.0,0.0,0.0,0.0,0.0,0.0,0.0,0.0,0.0,0
-33.0,-70.0,-61.0,-26.0,-3.0,-10.0,-30.0,9.0,0.0,0.0,0.0,0.0,0.0,0.0,0.0,0.0,0
-32.0,-30.0,-45.0,-30.0,-2.0,-2.0,-25.0,4.0,0.0,0.0,0.0,0.0,0.0,0.0,0.0,0.0,0
-23.0,-12.0,-44.0,-8.0,-8.0,2.0,-33.0,-3.0,0.0,0.0,0.0,0.0,0.0,0.0,0.0,0.0,0
-3.0,3.0,-32.0,17.0,-2.0,4.0,-35.0,8.0,0.0,0.0,0.0,0.0,0.0,0.0,0.0,0.0,0
37.0,20.0,-4.0,33.0,9.0,3.0,-15.0,8.0,0.0,0.0,0.0,0.0,0.0,0.0,0.0,0.0,0
49.0,23.0,19.0,30.0,11.0,4.0,-10.0,10.0,0.0,0.0,0.0,0.0,0.0,0.0,0.0,0.0,0
27.0,21.0,23.0,9.0,-1.0,9.0,-1.0,6.0,0.0,0.0,0.0,0.0,0.0,0.0,0.0,0.0,0
5.0,27.0,45.0,10.0,-6.0,6.0,14.0,-1.0,0.0,0.0,0.0,0.0,0.0,0.0,0.0,0.0,0
-9.0,26.0,52.0,6.0,-3.0,-2.0,18.0,-5.0,0.0,0.0,0.0,0.0,0.0,0.0,0.0,0.0,0
-23.0,9.0,41.0,-6.0,-5.0,-5.0,33.0,-15.0,0.0,0.0,0.0,0.0,0.0,0.0,0.0,0.0,0
-48.0,-8.0,18.0,-22.0,-8.0,-9.0,33.0,-19.0,0.0,0.0,0.0,0.0,0.0,0.0,0.0,0.0,0
-85.0,-25.0,-5.0,-32.0,-2.0,-5.0,25.0,-20.0,0.0,0.0,0.0,0.0,0.0,0.0,0.0,0.0,0
-74.0,-21.0,-10.0,-16.0,1.0,-1.0,22.0,-5.0,0.0,0.0,0.0,0.0,0.0,0.0,0.0,0.0,0
-28.0,-5.0,-5.0,-21.0,-5.0,-4.0,22.0,-9.0,0.0,0.0,0.0,0.0,0.0,0.0,0.0,0.0,0
14.0,-4.0,-27.0,-37.0,-12.0,-8.0,11.0,-7.0,0.0,0.0,0.0,0.0,0.0,0.0,0.0,0.0,0
37.0,-1.0,-43.0,-27.0,-15.0,-12.0,-7.0,-9.0,0.0,0.0,0.0,0.0,0.0,0.0,0.0,0.0,0
30.0,9.0,-31.0,-5.0,-6.0,-17.0,-13.0,-11.0,0.0,0.0,0.0,0.0,0.0,0.0,0.0,0.0,0
20.0,11.0,-5.0,21.0,2.0,-3.0,-11.0,-4.0,0.0,0.0,0.0,0.0,0.0,0.0,0.0,0.0,0
14.0,4.0,8.0,29.0,9.0,-1.0,-14.0,-3.0,0.0,0.0,0.0,0.0,0.0,0.0,0.0,0.0,0
22.0,-13.0,-2.0,23.0,6.0,-9.0,-37.0,-1.0,0.0,0.0,0.0,0.0,0.0,0.0,0.0,0.0,0
30.0,-17.0,-9.0,8.0,-6.0,-2.0,-32.0,11.0,0.0,0.0,0.0,0.0,0.0,0.0,0.0,0.0,0
23.0,-8.0,0.0,12.0,0.0,-5.0,-26.0,7.0,0.0,0.0,0.0,0.0,0.0,0.0,0.0,0.0,0
31.0,-3.0,-7.0,0.0,-6.0,-4.0,-29.0,13.0,0.0,0.0,0.0,0.0,0.0,0.0,0.0,0.0,0
6.0,-5.0,-19.0,-11.0,-6.0,-2.0,-32.0,12.0,0.0,0.0,0.0,0.0,0.0,0.0,0.0,0.0,0
-21.0,-22.0,-17.0,-12.0,-6.0,3.0,-20.0,9.0,0.0,0.0,0.0,0.0,0.0,0.0,0.0,0.0,0
-7.0,-14.0,-13.0,-6.0,-5.0,6.0,-12.0,10.0,0.0,0.0,0.0,0.0,0.0,0.0,0.0,0.0,0
-3.0,1.0,-8.0,1.0,-3.0,8.0,2.0,0.0,0.0,0.0,0.0,0.0,0.0,0.0,0.0,0.0,0
-19.0,9.0,9.0,0.0,10.0,7.0,21.0,-4.0,0.0,0.0,0.0,0.0,0.0,0.0,0.0,0.0,0
-24.0,16.0,32.0,4.0,7.0,4.0,34.0,-4.0,0.0,0.0,0.0,0.0,0.0,0.0,0.0,0.0,0
-43.0,-6.0,20.0,-11.0,-6.0,0.0,36.0,-16.0,0.0,0.0,0.0,0.0,0.0,0.0,0.0,0.0,0
-50.0,-7.0,2.0,-27.0,-8.0,-6.0,27.0,-21.0,0.0,0.0,0.0,0.0,0.0,0.0,0.0,0.0,0
-4.0,19.0,5.0,-14.0,-2.0,-7.0,20.0,-14.0,0.0,0.0,0.0,0.0,0.0,0.0,0.0,0.0,0
7.0,21.0,15.0,5.0,0.0,-5.0,10.0,-14.0,0.0,0.0,0.0,0.0,0.0,0.0,0.0,0.0,0
-6.0,15.0,11.0,5.0,6.0,-2.0,12.0,-4.0,0.0,0.0,0.0,0.0,0.0,0.0,0.0,0.0,0
-5.0,5.0,7.0,0.0,2.0,-7.0,10.0,-15.0,0.0,0.0,0.0,0.0,0.0,0.0,0.0,0.0,0
-14.0,-7.0,0.0,-2.0,-5.0,-8.0,-4.0,-17.0,0.0,0.0,0.0,0.0,0.0,0.0,0.0,0.0,0
-26.0,-24.0,-4.0,1.0,-3.0,-10.0,-5.0,-1.0,0.0,0.0,0.0,0.0,0.0,0.0,0.0,0.0,0
-9.0,-30.0,-6.0,1.0,-8.0,-7.0,-2.0,5.0,0.0,0.0,0.0,0.0,0.0,0.0,0.0,0.0,0
3.0,-27.0,-21.0,-14.0,-7.0,-7.0,-14.0,-1.0,0.0,0.0,0.0,0.0,0.0,0.0,0.0,0.0,0
21.0,-15.0,-28.0,-16.0,-10.0,-12.0,-39.0,0.0,0.0,0.0,0.0,0.0,0.0,0.0,0.0,0.0,0
46.0,12.0,-15.0,-11.0,-7.0,-5.0,-34.0,7.0,0.0,0.0,0.0,0.0,0.0,0.0,0.0,0.0,0
46.0,28.0,5.0,3.0,1.0,3.0,-22.0,12.0,0.0,0.0,0.0,0.0,0.0,0.0,0.0,0.0,0
39.0,13.0,2.0,8.0,-5.0,3.0,-29.0,14.0,0.0,0.0,0.0,0.0,0.0,0.0,0.0,0.0,0
43.0,9.0,-12.0,6.0,0.0,-1.0,-31.0,13.0,0.0,0.0,0.0,0.0,0.0,0.0,0.0,0.0,0
16.0,-5.0,-19.0,3.0,7.0,3.0,-20.0,6.0,0.0,0.0,0.0,0.0,0.0,0.0,0.0,0.0,0
-5.0,-34.0,-33.0,3.0,-1.0,1.0,-10.0,4.0,0.0,0.0,0.0,0.0,0.0,0.0,0.0,0.0,0
-16.0,-44.0,-43.0,-6.0,-4.0,4.0,-5.0,-2.0,0.0,0.0,0.0,0.0,0.0,0.0,0.0,0.0,0
-12.0,-16.0,-39.0,-17.0,0.0,0.0,10.0,-7.0,0.0,0.0,0.0,0.0,0.0,0.0,0.0,0.0,0
-40.0,11.0,1.0,-5.0,2.0,3.0,21.0,-7.0,0.0,0.0,0.0,0.0,0.0,0.0,0.0,0.0,0
-86.0,30.0,41.0,6.0,1.0,6.0,38.0,-16.0,0.0,0.0,0.0,0.0,0.0,0.0,0.0,0.0,0
-87.0,9.0,57.0,1.0,-7.0,-1.0,42.0,-12.0,0.0,0.0,0.0,0.0,0.0,0.0,0.0,0.0,0
-60.0,-22.0,53.0,6.0,-2.0,-1.0,24.0,-4.0,0.0,0.0,0.0,0.0,0.0,0.0,0.0,0.0,0
-38.0,-17.0,36.0,7.0,-4.0,2.0,18.0,-10.0,0.0,0.0,0.0,0.0,0.0,0.0,0.0,0.0,0
24.0,9.0,35.0,2.0,1.0,-1.0,17.0,-12.0,0.0,0.0,0.0,0.0,0.0,0.0,0.0,0.0,0
81.0,33.0,39.0,14.0,5.0,-3.0,10.0,-9.0,0.0,0.0,0.0,0.0,0.0,0.0,0.0,0.0,0
78.0,45.0,9.0,7.0,1.0,-13.0,-6.0,-13.0,0.0,0.0,0.0,0.0,0.0,0.0,0.0,0.0,0
45.0,26.0,-44.0,-28.0,-12.0,-16.0,-18.0,-12.0,0.0,0.0,0.0,0.0,0.0,0.0,0.0,0.0,0
20.0,3.0,-50.0,-43.0,-13.0,-12.0,-15.0,-3.0,0.0,0.0,0.0,0.0,0.0,0.0,0.0,0.0,0
-19.0,-11.0,-28.0,-16.0,-4.0,-7.0,-10.0,1.0,0.0,0.0,0.0,0.0,0.0,0.0,0.0,0.0,0
-29.0,-41.0,-45.0,-5.0,-5.0,-7.0,-27.0,3.0,0.0,0.0,0.0,0.0,0.0,0.0,0.0,0.0,0
-28.0,-69.0,-75.0,-15.0,-13.0,-4.0,-32.0,5.0,0.0,0.0,0.0,0.0,0.0,0.0,0.0,0.0,0
-11.0,-38.0,-45.0,-4.0,-10.0,-1.0,-22.0,6.0,0.0,0.0,0.0,0.0,0.0,0.0,0.0,0.0,0
21.0,-8.0,-7.0,7.0,-2.0,-6.0,-39.0,6.0,0.0,0.0,0.0,0.0,0.0,0.0,0.0,0.0,0
9.0,5.0,9.0,18.0,4.0,-1.0,-40.0,4.0,0.0,0.0,0.0,0.0,0.0,0.0,0.0,0.0,0
12.0,9.0,48.0,34.0,15.0,9.0,-15.0,11.0,0.0,0.0,0.0,0.0,0.0,0.0,0.0,0.0,0
19.0,7.0,64.0,28.0,18.0,10.0,-1.0,21.0,0.0,0.0,0.0,0.0,0.0,0.0,0.0,0.0,0
17.0,13.0,32.0,11.0,11.0,6.0,11.0,12.0,0.0,0.0,0.0,0.0,0.0,0.0,0.0,0.0,0
-6.0,0.0,-17.0,-17.0,-6.0,-3.0,10.0,1.0,0.0,0.0,0.0,0.0,0.0,0.0,0.0,0.0,0
-10.0,-4.0,-42.0,-38.0,-20.0,-2.0,13.0,-12.0,0.0,0.0,0.0,0.0,0.0,0.0,0.0,0.0,0
-36.0,-10.0,-30.0,-28.0,-8.0,8.0,42.0,-16.0,0.0,0.0,0.0,0.0,0.0,0.0,0.0,0.0,0
-57.0,-4.0,-3.0,-8.0,-4.0,10.0,43.0,-16.0,0.0,0.0,0.0,0.0,0.0,0.0,0.0,0.0,0
-26.0,22.0,28.0,12.0,4.0,-2.0,18.0,-18.0,0.0,0.0,0.0,0.0,0.0,0.0,0.0,0.0,0
-7.0,34.0,57.0,21.0,-2.0,-7.0,13.0,-20.0,0.0,0.0,0.0,0.0,0.0,0.0,0.0,0.0,0
-1.0,39.0,52.0,14.0,-3.0,-12.0,12.0,-14.0,0.0,0.0,0.0,0.0,0.0,0.0,0.0,0.0,0
-13.0,21.0,19.0,-7.0,-7.0,-13.0,6.0,-10.0,0.0,0.0,0.0,0.0,0.0,0.0,0.0,0.0,0
-17.0,-1.0,-22.0,-19.0,-4.0,-5.0,-6.0,-8.0,0.0,0.0,0.0,0.0,0.0,0.0,0.0,0.0,0
-3.0,-14.0,-27.0,-19.0,-3.0,1.0,-13.0,-11.0,0.0,0.0,0.0,0.0,0.0,0.0,0.0,0.0,0
21.0,-25.0,-23.0,-13.0,-12.0,-13.0,-20.0,-2.0,0.0,0.0,0.0,0.0,0.0,0.0,0.0,0.0,0
0.0,-62.0,-39.0,-20.0,-11.0,-15.0,-19.0,0.0,0.0,0.0,0.0,0.0,0.0,0.0,0.0,0.0,0
-5.0,-69.0,-39.0,-20.0,-9.0,-7.0,-27.0,5.0,0.0,0.0,0.0,0.0,0.0,0.0,0.0,0.0,0
36.0,-24.0,-14.0,10.0,1.0,3.0,-21.0,15.0,0.0,0.0,0.0,0.0,0.0,0.0,0.0,0.0,0
38.0,1.0,8.0,20.0,11.0,6.0,-14.0,16.0,0.0,0.0,0.0,0.0,0.0,0.0,0.0,0.0,0
52.0,28.0,3.0,8.0,-1.0,3.0,-26.0,17.0,0.0,0.0,0.0,0.0,0.0,0.0,0.0,0.0,0
49.0,32.0,-4.0,7.0,-4.0,1.0,-35.0,14.0,0.0,0.0,0.0,0.0,0.0,0.0,0.0,0.0,0
-7.0,4.0,-33.0,-8.0,-2.0,3.0,-18.0,13.0,0.0,0.0,0.0,0.0,0.0,0.0,0.0,0.0,0
-34.0,-14.0,-50.0,-22.0,-12.0,-3.0,-16.0,-1.0,0.0,0.0,0.0,0.0,0.0,0.0,0.0,0.0,0
-29.0,14.0,-14.0,-4.0,-6.0,-5.0,-8.0,-6.0,0.0,0.0,0.0,0.0,0.0,0.0,0.0,0.0,0
-35.0,-5.0,11.0,8.0,-3.0,-2.0,14.0,-4.0,0.0,0.0,0.0,0.0,0.0,0.0,0.0,0.0,0
-44.0,-29.0,13.0,4.0,-1.0,4.0,27.0,-6.0,0.0,0.0,0.0,0.0,0.0,0.0,0.0,0.0,0
-54.0,-4.0,40.0,8.0,6.0,6.0,41.0,-15.0,0.0,0.0,0.0,0.0,0.0,0.0,0.0,0.0,0
-35.0,13.0,62.0,9.0,6.0,3.0,37.0,-18.0,0.0,0.0,0.0,0.0,0.0,0.0,0.0,0.0,0
-5.0,14.0,49.0,8.0,2.0,1.0,17.0,-17.0,0.0,0.0,0.0,0.0,0.0,0.0,0.0,0.0,0
16.0,29.0,38.0,2.0,1.0,3.0,17.0,-16.0,0.0,0.0,0.0,0.0,0.0,0.0,0.0,0.0,0
31.0,37.0,22.0,1.0,1.0,-2.0,20.0,-8.0,0.0,0.0,0.0,0.0,0.0,0.0,0.0,0.0,0
32.0,35.0,10.0,-8.0,-8.0,-11.0,12.0,-9.0,0.0,0.0,0.0,0.0,0.0,0.0,0.0,0.0,0
25.0,4.0,-20.0,-21.0,-19.0,-12.0,-11.0,-8.0,0.0,0.0,0.0,0.0,0.0,0.0,0.0,0.0,0
-12.0,-30.0,-61.0,-31.0,-17.0,-12.0,-16.0,-6.0,0.0,0.0,0.0,0.0,0.0,0.0,0.0,0.0,0
-61.0,-38.0,-87.0,-42.0,-9.0,-16.0,-17.0,-4.0,0.0,0.0,0.0,0.0,0.0,0.0,0.0,0.0,0
-25.0,-16.0,-70.0,-29.0,-8.0,-19.0,-18.0,-10.0,0.0,0.0,0.0,0.0,0.0,0.0,0.0,0.0,0
23.0,-35.0,-37.0,-4.0,-7.0,-7.0,-24.0,10.0,0.0,0.0,0.0,0.0,0.0,0.0,0.0,0.0,0
14.0,-49.0,4.0,26.0,9.0,0.0,-28.0,26.0,0.0,0.0,0.0,0.0,0.0,0.0,0.0,0.0,0
15.0,-25.0,38.0,47.0,17.0,6.0,-22.0,20.0,0.0,0.0,0.0,0.0,0.0,0.0,0.0,0.0,0
29.0,-7.0,38.0,40.0,20.0,9.0,-24.0,9.0,0.0,0.0,0.0,0.0,0.0,0.0,0.0,0.0,0
35.0,10.0,13.0,18.0,3.0,4.0,-29.0,9.0,0.0,0.0,0.0,0.0,0.0,0.0,0.0,0.0,0
16.0,10.0,4.0,-1.0,-18.0,-3.0,-24.0,-2.0,0.0,0.0,0.0,0.0,0.0,0.0,0.0,0.0,0
-11.0,-7.0,-12.0,-11.0,-22.0,-7.0,-26.0,-9.0,0.0,0.0,0.0,0.0,0.0,0.0,0.0,0.0,0
-20.0,6.0,-1.0,2.0,-3.0,-1.0,-7.0,0.0,0.0,0.0,0.0,0.0,0.0,0.0,0.0,0.0,0
4.0,18.0,3.0,-4.0,5.0,4.0,23.0,6.0,0.0,0.0,0.0,0.0,0.0,0.0,0.0,0.0,0
-6.0,5.0,-19.0,-32.0,-3.0,6.0,33.0,-3.0,0.0,0.0,0.0,0.0,0.0,0.0,0.0,0.0,0
-37.0,2.0,-14.0,-36.0,-3.0,5.0,38.0,-13.0,0.0,0.0,0.0,0.0,0.0,0.0,0.0,0.0,0
-42.0,6.0,-3.0,-23.0,-4.0,4.0,40.0,-18.0,0.0,0.0,0.0,0.0,0.0,0.0,0.0,0.0,0
-24.0,11.0,20.0,0.0,-3.0,0.0,23.0,-14.0,0.0,0.0,0.0,0.0,0.0,0.0,0.0,0.0,0
-31.0,9.0,35.0,9.0,-1.0,-8.0,10.0,-16.0,0.0,0.0,0.0,0.0,0.0,0.0,0.0,0.0,0
-26.0,11.0,52.0,20.0,3.0,-11.0,7.0,-13.0,0.0,0.0,0.0,0.0,0.0,0.0,0.0,0.0,0
-9.0,-10.0,23.0,17.0,-1.0,-7.0,6.0,-14.0,0.0,0.0,0.0,0.0,0.0,0.0,0.0,0.0,0
2.0,-14.0,-21.0,-10.0,-5.0,-9.0,-8.0,-9.0,0.0,0.0,0.0,0.0,0.0,0.0,0.0,0.0,0
6.0,1.0,-32.0,-15.0,-4.0,-6.0,-7.0,-6.0,0.0,0.0,0.0,0.0,0.0,0.0,0.0,0.0,0
14.0,11.0,-28.0,-15.0,-2.0,-1.0,-10.0,-3.0,0.0,0.0,0.0,0.0,0.0,0.0,0.0,0.0,0
15.0,-18.0,-24.0,-11.0,-1.0,-7.0,-14.0,-1.0,0.0,0.0,0.0,0.0,0.0,0.0,0.0,0.0,0
41.0,-25.0,-21.0,0.0,0.0,-3.0,-24.0,6.0,0.0,0.0,0.0,0.0,0.0,0.0,0.0,0.0,0
46.0,12.0,2.0,15.0,1.0,-6.0,-26.0,12.0,0.0,0.0,0.0,0.0,0.0,0.0,0.0,0.0,0
19.0,32.0,12.0,13.0,1.0,-2.0,-19.0,11.0,0.0,0.0,0.0,0.0,0.0,0.0,0.0,0.0,0
14.0,6.0,1.0,3.0,-6.0,1.0,-23.0,12.0,0.0,0.0,0.0,0.0,0.0,0.0,0.0,0.0,0
3.0,-25.0,-11.0,-5.0,-16.0,-2.0,-30.0,16.0,0.0,0.0,0.0,0.0,0.0,0.0,0.0,0.0,0
-16.0,-47.0,-35.0,-5.0,-16.0,-4.0,-22.0,6.0,0.0,0.0,0.0,0.0,0.0,0.0,0.0,0.0,0
-14.0,-37.0,-37.0,-8.0,-10.0,-1.0,-14.0,0.0,0.0,0.0,0.0,0.0,0.0,0.0,0.0,0.0,0
-10.0,-10.0,-11.0,-7.0,2.0,11.0,-6.0,-3.0,0.0,0.0,0.0,0.0,0.0,0.0,0.0,0.0,0
-20.0,-18.0,4.0,-1.0,5.0,7.0,10.0,-1.0,0.0,0.0,0.0,0.0,0.0,0.0,0.0,0.0,0
-25.0,-22.0,8.0,3.0,7.0,5.0,28.0,-1.0,0.0,0.0,0.0,0.0,0.0,0.0,0.0,0.0,0
-26.0,-9.0,18.0,-7.0,5.0,5.0,41.0,-8.0,0.0,0.0,0.0,0.0,0.0,0.0,0.0,0.0,0
-28.0,21.0,33.0,-7.0,8.0,0.0,36.0,-21.0,0.0,0.0,0.0,0.0,0.0,0.0,0.0,0.0,0
-22.0,32.0,32.0,-6.0,2.0,-10.0,19.0,-23.0,0.0,0.0,0.0,0.0,0.0,0.0,0.0,0.0,0
-6.0,40.0,9.0,-9.0,-9.0,-13.0,13.0,-21.0,0.0,0.0,0.0,0.0,0.0,0.0,0.0,0.0,0
-11.0,45.0,4.0,0.0,-8.0,-6.0,8.0,-14.0,0.0,0.0,0.0,0.0,0.0,0.0,0.0,0.0,0
-11.0,44.0,23.0,10.0,-3.0,-2.0,18.0,-4.0,0.0,0.0,0.0,0.0,0.0,0.0,0.0,0.0,0
-5.0,-6.0,15.0,16.0,-3.0,-3.0,4.0,-3.0,0.0,0.0,0.0,0.0,0.0,0.0,0.0,0.0,0
-4.0,-36.0,-4.0,3.0,2.0,-4.0,-5.0,-2.0,0.0,0.0,0.0,0.0,0.0,0.0,0.0,0.0,0
7.0,-20.0,-6.0,-9.0,7.0,-2.0,-12.0,0.0,0.0,0.0,0.0,0.0,0.0,0.0,0.0,0.0,0
19.0,-11.0,-5.0,-14.0,-2.0,-11.0,-16.0,0.0,0.0,0.0,0.0,0.0,0.0,0.0,0.0,0.0,0
32.0,-14.0,-24.0,-21.0,-10.0,-15.0,-34.0,4.0,0.0,0.0,0.0,0.0,0.0,0.0,0.0,0.0,0
33.0,-18.0,-37.0,-6.0,-12.0,-7.0,-41.0,-3.0,0.0,0.0,0.0,0.0,0.0,0.0,0.0,0.0,0
24.0,-16.0,-35.0,-3.0,-8.0,-3.0,-29.0,9.0,0.0,0.0,0.0,0.0,0.0,0.0,0.0,0.0,0
23.0,-4.0,-33.0,-7.0,-7.0,1.0,-33.0,16.0,0.0,0.0,0.0,0.0,0.0,0.0,0.0,0.0,0
12.0,-18.0,-41.0,-3.0,1.0,-2.0,-31.0,12.0,0.0,0.0,0.0,0.0,0.0,0.0,0.0,0.0,0
-22.0,-41.0,-41.0,-6.0,-6.0,0.0,-14.0,8.0,0.0,0.0,0.0,0.0,0.0,0.0,0.0,0.0,0
-23.0,-15.0,-6.0,7.0,-4.0,6.0,-8.0,2.0,0.0,0.0,0.0,0.0,0.0,0.0,0.0,0.0,0
-9.0,-6.0,13.0,19.0,3.0,4.0,3.0,-1.0,0.0,0.0,0.0,0.0,0.0,0.0,0.0,0.0,0
2.0,-9.0,21.0,17.0,11.0,10.0,12.0,4.0,0.0,0.0,0.0,0.0,0.0,0.0,0.0,0.0,0
1.0,11.0,42.0,20.0,13.0,8.0,25.0,-6.0,0.0,0.0,0.0,0.0,0.0,0.0,0.0,0.0,0
-26.0,37.0,60.0,1.0,6.0,3.0,39.0,-11.0,0.0,0.0,0.0,0.0,0.0,0.0,0.0,0.0,0
-34.0,35.0,43.0,-28.0,-6.0,-2.0,30.0,-16.0,0.0,0.0,0.0,0.0,0.0,0.0,0.0,0.0,0
-16.0,20.0,13.0,-27.0,-10.0,-9.0,14.0,-19.0,0.0,0.0,0.0,0.0,0.0,0.0,0.0,0.0,0
-38.0,28.0,12.0,1.0,4.0,-5.0,17.0,-13.0,0.0,0.0,0.0,0.0,0.0,0.0,0.0,0.0,0
-64.0,33.0,30.0,7.0,6.0,-9.0,16.0,-8.0,0.0,0.0,0.0,0.0,0.0,0.0,0.0,0.0,0
-40.0,37.0,18.0,0.0,-4.0,-4.0,10.0,-19.0,0.0,0.0,0.0,0.0,0.0,0.0,0.0,0.0,0
18.0,-15.0,-56.0,-20.0,-19.0,-18.0,-7.0,-17.0,0.0,0.0,0.0,0.0,0.0,0.0,0.0,0.0,0
51.0,-50.0,-85.0,-30.0,-26.0,-15.0,-19.0,-10.0,0.0,0.0,0.0,0.0,0.0,0.0,0.0,0.0,0
80.0,-30.0,-74.0,-30.0,-18.0,-12.0,-19.0,-5.0,0.0,0.0,0.0,0.0,0.0,0.0,0.0,0.0,0
87.0,-12.0,-27.0,-11.0,-3.0,3.0,-14.0,3.0,0.0,0.0,0.0,0.0,0.0,0.0,0.0,0.0,0
42.0,-14.0,0.0,7.0,-2.0,2.0,-23.0,11.0,0.0,0.0,0.0,0.0,0.0,0.0,0.0,0.0,0
-31.0,-62.0,2.0,11.0,6.0,-3.0,-25.0,6.0,0.0,0.0,0.0,0.0,0.0,0.0,0.0,0.0,0
-86.0,-71.0,5.0,12.0,5.0,-1.0,-21.0,8.0,0.0,0.0,0.0,0.0,0.0,0.0,0.0,0.0,0
-78.0,-23.0,4.0,17.0,0.0,1.0,-32.0,14.0,0.0,0.0,0.0,0.0,0.0,0.0,0.0,0.0,0
-13.0,18.0,8.0,16.0,11.0,-5.0,-30.0,18.0,0.0,0.0,0.0,0.0,0.0,0.0,0.0,0.0,0
22.0,34.0,29.0,16.0,8.0,-1.0,-17.0,15.0,0.0,0.0,0.0,0.0,0.0,0.0,0.0,0.0,0
38.0,33.0,25.0,20.0,2.0,9.0,-8.0,4.0,0.0,0.0,0.0,0.0,0.0,0.0,0.0,0.0,0
50.0,20.0,6.0,6.0,2.0,11.0,-1.0,-1.0,0.0,0.0,0.0,0.0,0.0,0.0,0.0,0.0,0
39.0,12.0,-6.0,1.0,6.0,10.0,9.0,-7.0,0.0,0.0,0.0,0.0,0.0,0.0,0.0,0.0,0
23.0,0.0,-10.0,-7.0,-4.0,2.0,16.0,-14.0,0.0,0.0,0.0,0.0,0.0,0.0,0.0,0.0,0
-4.0,10.0,21.0,-14.0,-9.0,3.0,39.0,-12.0,0.0,0.0,0.0,0.0,0.0,0.0,0.0,0.0,0
-62.0,18.0,13.0,-29.0,-14.0,-5.0,41.0,-19.0,0.0,0.0,0.0,0.0,0.0,0.0,0.0,0.0,0
-77.0,-5.0,-23.0,-44.0,-17.0,-11.0,19.0,-18.0,0.0,0.0,0.0,0.0,0.0,0.0,0.0,0.0,0
-49.0,-12.0,-27.0,-27.0,-9.0,-13.0,12.0,-17.0,0.0,0.0,0.0,0.0,0.0,0.0,0.0,0.0,0
-34.0,-2.0,-10.0,-8.0,-3.0,-10.0,10.0,-16.0,0.0,0.0,0.0,0.0,0.0,0.0,0.0,0.0,0
-19.0,-3.0,4.0,0.0,1.0,-2.0,6.0,-3.0,0.0,0.0,0.0,0.0,0.0,0.0,0.0,0.0,0
-5.0,-6.0,18.0,19.0,1.0,3.0,-2.0,-2.0,0.0,0.0,0.0,0.0,0.0,0.0,0.0,0.0,0
11.0,-9.0,33.0,20.0,5.0,1.0,-8.0,-4.0,0.0,0.0,0.0,0.0,0.0,0.0,0.0,0.0,0
2.0,-12.0,22.0,6.0,1.0,-5.0,-18.0,-1.0,0.0,0.0,0.0,0.0,0.0,0.0,0.0,0.0,0
27.0,-13.0,-11.0,-2.0,-1.0,-8.0,-16.0,0.0,0.0,0.0,0.0,0.0,0.0,0.0,0.0,0.0,0
78.0,-6.0,-32.0,-7.0,-7.0,-11.0,-23.0,9.0,0.0,0.0,0.0,0.0,0.0,0.0,0.0,0.0,0
66.0,0.0,-29.0,7.0,-6.0,0.0,-24.0,12.0,0.0,0.0,0.0,0.0,0.0,0.0,0.0,0.0,0
27.0,10.0,-12.0,5.0,-4.0,3.0,-23.0,11.0,0.0,0.0,0.0,0.0,0.0,0.0,0.0,0.0,0
0.0,1.0,-27.0,-5.0,-9.0,-12.0,-31.0,12.0,0.0,0.0,0.0,0.0,0.0,0.0,0.0,0.0,0
-4.0,-11.0,-48.0,-18.0,-8.0,-16.0,-39.0,7.0,0.0,0.0,0.0,0.0,0.0,0.0,0.0,0.0,0
-11.0,-17.0,-34.0,-12.0,2.0,-5.0,-28.0,2.0,0.0,0.0,0.0,0.0,0.0,0.0,0.0,0.0,0
-24.0,-24.0,-13.0,-1.0,0.0,6.0,-23.0,7.0,0.0,0.0,0.0,0.0,0.0,0.0,0.0,0.0,0
-38.0,-28.0,9.0,8.0,1.0,11.0,-3.0,6.0,0.0,0.0,0.0,0.0,0.0,0.0,0.0,0.0,0
-37.0,-5.0,16.0,-1.0,6.0,13.0,14.0,0.0,0.0,0.0,0.0,0.0,0.0,0.0,0.0,0.0,0
-13.0,1.0,16.0,-4.0,4.0,6.0,26.0,-7.0,0.0,0.0,0.0,0.0,0.0,0.0,0.0,0.0,0
-11.0,-3.0,32.0,3.0,-6.0,8.0,39.0,-15.0,0.0,0.0,0.0,0.0,0.0,0.0,0.0,0.0,0
-23.0,-6.0,41.0,7.0,-2.0,5.0,49.0,-19.0,0.0,0.0,0.0,0.0,0.0,0.0,0.0,0.0,0
-27.0,4.0,32.0,6.0,-3.0,-12.0,32.0,-10.0,0.0,0.0,0.0,0.0,0.0,0.0,0.0,0.0,0
-17.0,33.0,17.0,0.0,-1.0,-11.0,20.0,-9.0,0.0,0.0,0.0,0.0,0.0,0.0,0.0,0.0,0
-8.0,58.0,15.0,-1.0,1.0,-5.0,9.0,-10.0,0.0,0.0,0.0,0.0,0.0,0.0,0.0,0.0,0
16.0,76.0,10.0,-11.0,-10.0,-12.0,-1.0,-16.0,0.0,0.0,0.0,0.0,0.0,0.0,0.0,0.0,0
25.0,44.0,-13.0,-13.0,-7.0,-15.0,-12.0,-11.0,0.0,0.0,0.0,0.0,0.0,0.0,0.0,0.0,0
19.0,-9.0,-27.0,-14.0,-4.0,-9.0,-14.0,-10.0,0.0,0.0,0.0,0.0,0.0,0.0,0.0,0.0,0
-9.0,-53.0,-21.0,-8.0,-1.0,-4.0,-17.0,-4.0,0.0,0.0,0.0,0.0,0.0,0.0,0.0,0.0,0
-17.0,-75.0,-10.0,0.0,4.0,1.0,-9.0,1.0,0.0,0.0,0.0,0.0,0.0,0.0,0.0,0.0,0
3.0,-58.0,-18.0,-1.0,-1.0,-4.0,-26.0,10.0,0.0,0.0,0.0,0.0,0.0,0.0,0.0,0.0,0
12.0,-41.0,-34.0,-4.0,-8.0,-3.0,-30.0,9.0,0.0,0.0,0.0,0.0,0.0,0.0,0.0,0.0,0
14.0,-24.0,-33.0,-11.0,-5.0,2.0,-23.0,4.0,0.0,0.0,0.0,0.0,0.0,0.0,0.0,0.0,0
30.0,10.0,-16.0,-3.0,-9.0,-1.0,-31.0,6.0,0.0,0.0,0.0,0.0,0.0,0.0,0.0,0.0,0
32.0,12.0,-16.0,6.0,-7.0,1.0,-36.0,17.0,0.0,0.0,0.0,0.0,0.0,0.0,0.0,0.0,0
10.0,4.0,-27.0,-1.0,-4.0,0.0,-25.0,13.0,0.0,0.0,0.0,0.0,0.0,0.0,0.0,0.0,0
4.0,13.0,-14.0,2.0,-1.0,-2.0,-15.0,5.0,0.0,0.0,0.0,0.0,0.0,0.0,0.0,0.0,0
-4.0,11.0,12.0,10.0,1.0,6.0,9.0,1.0,0.0,0.0,0.0,0.0,0.0,0.0,0.0,0.0,0
-22.0,10.0,19.0,12.0,5.0,9.0,17.0,3.0,0.0,0.0,0.0,0.0,0.0,0.0,0.0,0.0,0
-32.0,4.0,27.0,6.0,2.0,3.0,22.0,-3.0,0.0,0.0,0.0,0.0,0.0,0.0,0.0,0.0,0
-45.0,9.0,42.0,7.0,7.0,8.0,33.0,-12.0,0.0,0.0,0.0,0.0,0.0,0.0,0.0,0.0,0
-42.0,17.0,47.0,7.0,8.0,13.0,44.0,-19.0,0.0,0.0,0.0,0.0,0.0,0.0,0.0,0.0,0
-16.0,13.0,34.0,2.0,4.0,-2.0,29.0,-14.0,0.0,0.0,0.0,0.0,0.0,0.0,0.0,0.0,0
-12.0,-21.0,0.0,-14.0,-10.0,-14.0,10.0,-17.0,0.0,0.0,0.0,0.0,0.0,0.0,0.0,0.0,0
-13.0,-31.0,-25.0,-31.0,-9.0,-5.0,6.0,-10.0,0.0,0.0,0.0,0.0,0.0,0.0,0.0,0.0,0
7.0,0.0,-18.0,-27.0,-18.0,-9.0,-1.0,-20.0,0.0,0.0,0.0,0.0,0.0,0.0,0.0,0.0,0
15.0,6.0,-9.0,-18.0,-13.0,-16.0,-8.0,-11.0,0.0,0.0,0.0,0.0,0.0,0.0,0.0,0.0,0
34.0,6.0,-5.0,-8.0,-6.0,-15.0,-11.0,1.0,0.0,0.0,0.0,0.0,0.0,0.0,0.0,0.0,0
16.0,12.0,-7.0,-12.0,1.0,-3.0,-9.0,1.0,0.0,0.0,0.0,0.0,0.0,0.0,0.0,0.0,0
-15.0,-2.0,-12.0,-19.0,-6.0,-2.0,-15.0,-3.0,0.0,0.0,0.0,0.0,0.0,0.0,0.0,0.0,0
-11.0,-5.0,-8.0,2.0,0.0,-6.0,-27.0,4.0,0.0,0.0,0.0,0.0,0.0,0.0,0.0,0.0,0
-3.0,-6.0,-15.0,20.0,7.0,-1.0,-27.0,4.0,0.0,0.0,0.0,0.0,0.0,0.0,0.0,0.0,0
8.0,-22.0,-32.0,16.0,1.0,0.0,-21.0,10.0,0.0,0.0,0.0,0.0,0.0,0.0,0.0,0.0,0
22.0,-31.0,-33.0,4.0,-3.0,-2.0,-29.0,18.0,0.0,0.0,0.0,0.0,0.0,0.0,0.0,0.0,0
4.0,-34.0,-38.0,4.0,-2.0,-7.0,-28.0,18.0,0.0,0.0,0.0,0.0,0.0,0.0,0.0,0.0,0
-15.0,-36.0,-40.0,4.0,0.0,3.0,-20.0,5.0,0.0,0.0,0.0,0.0,0.0,0.0,0.0,0.0,0
31.0,-16.0,-21.0,3.0,0.0,1.0,-19.0,2.0,0.0,0.0,0.0,0.0,0.0,0.0,0.0,0.0,0
37.0,18.0,20.0,8.0,3.0,6.0,4.0,8.0,0.0,0.0,0.0,0.0,0.0,0.0,0.0,0.0,0
-1.0,26.0,39.0,5.0,9.0,22.0,23.0,6.0,0.0,0.0,0.0,0.0,0.0,0.0,0.0,0.0,0
-28.0,20.0,41.0,-6.0,0.0,10.0,18.0,-4.0,0.0,0.0,0.0,0.0,0.0,0.0,0.0,0.0,0
-23.0,22.0,52.0,-10.0,-6.0,-4.0,31.0,-23.0,0.0,0.0,0.0,0.0,0.0,0.0,0.0,0.0,0
-8.0,30.0,39.0,-15.0,-15.0,-4.0,32.0,-26.0,0.0,0.0,0.0,0.0,0.0,0.0,0.0,0.0,0
1.0,23.0,18.0,-16.0,-15.0,-11.0,19.0,-21.0,0.0,0.0,0.0,0.0,0.0,0.0,0.0,0.0,0
-10.0,9.0,10.0,-4.0,3.0,-5.0,23.0,-13.0,0.0,0.0,0.0,0.0,0.0,0.0,0.0,0.0,0
-30.0,4.0,4.0,9.0,6.0,-3.0,16.0,-12.0,0.0,0.0,0.0,0.0,0.0,0.0,0.0,0.0,0
-36.0,-4.0,-7.0,9.0,9.0,-2.0,9.0,-8.0,0.0,0.0,0.0,0.0,0.0,0.0,0.0,0.0,0
-34.0,-28.0,-30.0,2.0,0.0,-12.0,-1.0,-3.0,0.0,0.0,0.0,0.0,0.0,0.0,0.0,0.0,0
-12.0,-24.0,-36.0,-5.0,-1.0,-10.0,-8.0,-6.0,0.0,0.0,0.0,0.0,0.0,0.0,0.0,0.0,0
0.0,-21.0,-34.0,-17.0,-7.0,-6.0,-11.0,-1.0,0.0,0.0,0.0,0.0,0.0,0.0,0.0,0.0,0
6.0,-16.0,-26.0,-17.0,-7.0,-3.0,-17.0,1.0,0.0,0.0,0.0,0.0,0.0,0.0,0.0,0.0,0
23.0,-7.0,-27.0,-5.0,-5.0,-3.0,-29.0,6.0,0.0,0.0,0.0,0.0,0.0,0.0,0.0,0.0,0
31.0,1.0,-10.0,4.0,-2.0,-2.0,-32.0,13.0,0.0,0.0,0.0,0.0,0.0,0.0,0.0,0.0,0
22.0,14.0,20.0,9.0,-4.0,-6.0,-30.0,9.0,0.0,0.0,0.0,0.0,0.0,0.0,0.0,0.0,0
36.0,11.0,29.0,15.0,-7.0,-5.0,-31.0,13.0,0.0,0.0,0.0,0.0,0.0,0.0,0.0,0.0,0
42.0,-19.0,-20.0,-10.0,-17.0,-1.0,-40.0,8.0,0.0,0.0,0.0,0.0,0.0,0.0,0.0,0.0,0
17.0,-47.0,-35.0,-31.0,-14.0,1.0,-18.0,1.0,0.0,0.0,0.0,0.0,0.0,0.0,0.0,0.0,0
-1.0,-41.0,-35.0,-18.0,-9.0,4.0,-11.0,11.0,0.0,0.0,0.0,0.0,0.0,0.0,0.0,0.0,0
-28.0,-12.0,-12.0,5.0,3.0,-1.0,-2.0,8.0,0.0,0.0,0.0,0.0,0.0,0.0,0.0,0.0,0
-54.0,2.0,3.0,16.0,11.0,6.0,15.0,1.0,0.0,0.0,0.0,0.0,0.0,0.0,0.0,0.0,0
-38.0,18.0,8.0,8.0,13.0,8.0,27.0,-2.0,0.0,0.0,0.0,0.0,0.0,0.0,0.0,0.0,0
-23.0,40.0,35.0,18.0,18.0,11.0,45.0,-17.0,0.0,0.0,0.0,0.0,0.0,0.0,0.0,0.0,0
-18.0,59.0,51.0,18.0,7.0,2.0,45.0,-26.0,0.0,0.0,0.0,0.0,0.0,0.0,0.0,0.0,0
6.0,54.0,36.0,6.0,-6.0,-1.0,21.0,-14.0,0.0,0.0,0.0,0.0,0.0,0.0,0.0,0.0,0
-8.0,24.0,7.0,-12.0,-12.0,-11.0,11.0,-12.0,0.0,0.0,0.0,0.0,0.0,0.0,0.0,0.0,0
-7.0,-22.0,-35.0,-43.0,-20.0,-11.0,9.0,-19.0,0.0,0.0,0.0,0.0,0.0,0.0,0.0,0.0,0
-4.0,-41.0,-33.0,-43.0,-18.0,-12.0,0.0,-17.0,0.0,0.0,0.0,0.0,0.0,0.0,0.0,0.0,0
4.0,-45.0,-15.0,-22.0,-9.0,-12.0,-7.0,-8.0,0.0,0.0,0.0,0.0,0.0,0.0,0.0,0.0,0
0.0,-30.0,10.0,-5.0,0.0,-7.0,-10.0,-4.0,0.0,0.0,0.0,0.0,0.0,0.0,0.0,0.0,0
-6.0,-16.0,27.0,14.0,0.0,-7.0,-10.0,4.0,0.0,0.0,0.0,0.0,0.0,0.0,0.0,0.0,0
-9.0,-13.0,24.0,25.0,10.0,-6.0,-14.0,5.0,0.0,0.0,0.0,0.0,0.0,0.0,0.0,0.0,0
4.0,-14.0,1.0,25.0,14.0,-5.0,-30.0,5.0,0.0,0.0,0.0,0.0,0.0,0.0,0.0,0.0,0
24.0,-2.0,-14.0,24.0,8.0,0.0,-25.0,12.0,0.0,0.0,0.0,0.0,0.0,0.0,0.0,0.0,0
30.0,10.0,-27.0,9.0,-3.0,4.0,-19.0,11.0,0.0,0.0,0.0,0.0,0.0,0.0,0.0,0.0,0
41.0,6.0,-55.0,-17.0,-11.0,-10.0,-29.0,0.0,0.0,0.0,0.0,0.0,0.0,0.0,0.0,0.0,0
49.0,4.0,-53.0,-17.0,-12.0,-7.0,-34.0,4.0,0.0,0.0,0.0,0.0,0.0,0.0,0.0,0.0,0
37.0,5.0,-22.0,-7.0,-7.0,6.0,-17.0,9.0,0.0,0.0,0.0,0.0,0.0,0.0,0.0,0.0,0
16.0,0.0,-9.0,-11.0,-3.0,3.0,-13.0,5.0,0.0,0.0,0.0,0.0,0.0,0.0,0.0,0.0,0
-29.0,-2.0,8.0,-2.0,0.0,-1.0,1.0,8.0,0.0,0.0,0.0,0.0,0.0,0.0,0.0,0.0,0
-70.0,-5.0,36.0,5.0,3.0,5.0,7.0,-2.0,0.0,0.0,0.0,0.0,0.0,0.0,0.0,0.0,0
-89.0,-6.0,56.0,15.0,4.0,7.0,22.0,-7.0,0.0,0.0,0.0,0.0,0.0,0.0,0.0,0.0,0
-88.0,-6.0,28.0,3.0,1.0,7.0,43.0,-13.0,0.0,0.0,0.0,0.0,0.0,0.0,0.0,0.0,0
-37.0,-8.0,-13.0,-23.0,-5.0,1.0,38.0,-19.0,0.0,0.0,0.0,0.0,0.0,0.0,0.0,0.0,0
37.0,7.0,-20.0,-35.0,-12.0,-7.0,26.0,-8.0,0.0,0.0,0.0,0.0,0.0,0.0,0.0,0.0,0
45.0,12.0,-6.0,-20.0,-8.0,-9.0,13.0,-5.0,0.0,0.0,0.0,0.0,0.0,0.0,0.0,0.0,0
31.0,9.0,1.0,-6.0,-6.0,-6.0,10.0,-10.0,0.0,0.0,0.0,0.0,0.0,0.0,0.0,0.0,0
16.0,18.0,19.0,6.0,-4.0,-6.0,8.0,-15.0,0.0,0.0,0.0,0.0,0.0,0.0,0.0,0.0,0
-3.0,7.0,21.0,16.0,-3.0,-13.0,-2.0,-17.0,0.0,0.0,0.0,0.0,0.0,0.0,0.0,0.0,0
-21.0,-23.0,1.0,8.0,1.0,-13.0,-10.0,-7.0,0.0,0.0,0.0,0.0,0.0,0.0,0.0,0.0,0
-26.0,-28.0,-6.0,5.0,3.0,-11.0,-10.0,-5.0,0.0,0.0,0.0,0.0,0.0,0.0,0.0,0.0,0
-4.0,-21.0,-6.0,7.0,0.0,-7.0,-21.0,-10.0,0.0,0.0,0.0,0.0,0.0,0.0,0.0,0.0,0
25.0,-13.0,-26.0,-6.0,-3.0,-4.0,-33.0,6.0,0.0,0.0,0.0,0.0,0.0,0.0,0.0,0.0,0
27.0,0.0,-22.0,-10.0,-4.0,-4.0,-33.0,17.0,0.0,0.0,0.0,0.0,0.0,0.0,0.0,0.0,0
6.0,3.0,-27.0,-14.0,-10.0,-2.0,-23.0,15.0,0.0,0.0,0.0,0.0,0.0,0.0,0.0,0.0,0
14.0,11.0,-40.0,-9.0,-12.0,5.0,-26.0,10.0,0.0,0.0,0.0,0.0,0.0,0.0,0.0,0.0,0
26.0,18.0,-27.0,-2.0,1.0,-1.0,-30.0,13.0,0.0,0.0,0.0,0.0,0.0,0.0,0.0,0.0,0
16.0,22.0,-4.0,4.0,6.0,4.0,-21.0,10.0,0.0,0.0,0.0,0.0,0.0,0.0,0.0,0.0,0
11.0,-9.0,4.0,2.0,-1.0,2.0,-19.0,8.0,0.0,0.0,0.0,0.0,0.0,0.0,0.0,0.0,0
-9.0,-48.0,7.0,1.0,-3.0,4.0,0.0,3.0,0.0,0.0,0.0,0.0,0.0,0.0,0.0,0.0,0
-19.0,-38.0,10.0,-3.0,-6.0,3.0,17.0,-3.0,0.0,0.0,0.0,0.0,0.0,0.0,0.0,0.0,0
-31.0,-30.0,-3.0,-2.0,-4.0,1.0,24.0,-14.0,0.0,0.0,0.0,0.0,0.0,0.0,0.0,0.0,0
-57.0,-20.0,16.0,6.0,4.0,2.0,40.0,-21.0,0.0,0.0,0.0,0.0,0.0,0.0,0.0,0.0,0
-56.0,15.0,29.0,3.0,7.0,-2.0,42.0,-19.0,0.0,0.0,0.0,0.0,0.0,0.0,0.0,0.0,0
-4.0,56.0,27.0,5.0,4.0,-6.0,23.0,-10.0,0.0,0.0,0.0,0.0,0.0,0.0,0.0,0.0,0
18.0,50.0,8.0,-1.0,-4.0,-8.0,8.0,-16.0,0.0,0.0,0.0,0.0,0.0,0.0,0.0,0.0,0
-3.0,23.0,1.0,-6.0,-4.0,-2.0,8.0,-10.0,0.0,0.0,0.0,0.0,0.0,0.0,0.0,0.0,0
-16.0,31.0,8.0,-5.0,-1.0,2.0,11.0,-5.0,0.0,0.0,0.0,0.0,0.0,0.0,0.0,0.0,0
-16.0,27.0,10.0,-1.0,1.0,-5.0,7.0,-10.0,0.0,0.0,0.0,0.0,0.0,0.0,0.0,0.0,0
-8.0,-13.0,5.0,-3.0,-1.0,-14.0,-4.0,-2.0,0.0,0.0,0.0,0.0,0.0,0.0,0.0,0.0,0
12.0,-33.0,3.0,-3.0,-3.0,-6.0,-13.0,-1.0,0.0,0.0,0.0,0.0,0.0,0.0,0.0,0.0,0
31.0,-43.0,-6.0,-5.0,-6.0,-6.0,-19.0,-4.0,0.0,0.0,0.0,0.0,0.0,0.0,0.0,0.0,0
45.0,-51.0,-41.0,-17.0,-7.0,-5.0,-41.0,7.0,0.0,0.0,0.0,0.0,0.0,0.0,0.0,0.0,0
28.0,-37.0,-52.0,-15.0,-8.0,-9.0,-37.0,8.0,0.0,0.0,0.0,0.0,0.0,0.0,0.0,0.0,0
8.0,-18.0,-35.0,-5.0,-13.0,-5.0,-28.0,5.0,0.0,0.0,0.0,0.0,0.0,0.0,0.0,0.0,0
21.0,-7.0,-31.0,-9.0,-12.0,-7.0,-31.0,4.0,0.0,0.0,0.0,0.0,0.0,0.0,0.0,0.0,0
19.0,1.0,-26.0,-3.0,-6.0,-5.0,-25.0,12.0,0.0,0.0,0.0,0.0,0.0,0.0,0.0,0.0,0
-3.0,15.0,-12.0,8.0,6.0,10.0,-17.0,15.0,0.0,0.0,0.0,0.0,0.0,0.0,0.0,0.0,0
-2.0,26.0,8.0,8.0,11.0,8.0,-10.0,7.0,0.0,0.0,0.0,0.0,0.0,0.0,0.0,0.0,0
-28.0,23.0,31.0,19.0,13.0,5.0,5.0,6.0,0.0,0.0,0.0,0.0,0.0,0.0,0.0,0.0,0
-58.0,14.0,43.0,17.0,8.0,11.0,16.0,0.0,0.0,0.0,0.0,0.0,0.0,0.0,0.0,0.0,0
-44.0,9.0,19.0,-4.0,0.0,5.0,25.0,-10.0,0.0,0.0,0.0,0.0,0.0,0.0,0.0,0.0,0
-22.0,-7.0,17.0,-13.0,-6.0,0.0,37.0,-19.0,0.0,0.0,0.0,0.0,0.0,0.0,0.0,0.0,0
-7.0,-23.0,6.0,-17.0,-13.0,-5.0,36.0,-20.0,0.0,0.0,0.0,0.0,0.0,0.0,0.0,0.0,0
7.0,-38.0,-28.0,-13.0,-10.0,-4.0,26.0,-14.0,0.0,0.0,0.0,0.0,0.0,0.0,0.0,0.0,0
22.0,-9.0,-11.0,-1.0,1.0,-9.0,14.0,-7.0,0.0,0.0,0.0,0.0,0.0,0.0,0.0,0.0,0
26.0,26.0,30.0,13.0,6.0,-14.0,6.0,-8.0,0.0,0.0,0.0,0.0,0.0,0.0,0.0,0.0,0
14.0,34.0,14.0,-13.0,-8.0,-12.0,1.0,-15.0,0.0,0.0,0.0,0.0,0.0,0.0,0.0,0.0,0
-22.0,14.0,-5.0,-28.0,-15.0,-12.0,-6.0,-17.0,0.0,0.0,0.0,0.0,0.0,0.0,0.0,0.0,0
-43.0,20.0,3.0,-8.0,-3.0,-1.0,-4.0,-4.0,0.0,0.0,0.0,0.0,0.0,0.0,0.0,0.0,0
-45.0,11.0,16.0,11.0,8.0,-1.0,-2.0,6.0,0.0,0.0,0.0,0.0,0.0,0.0,0.0,0.0,0
-30.0,-8.0,11.0,4.0,1.0,-3.0,-17.0,2.0,0.0,0.0,0.0,0.0,0.0,0.0,0.0,0.0,0
14.0,-28.0,-6.0,7.0,-1.0,-8.0,-32.0,9.0,0.0,0.0,0.0,0.0,0.0,0.0,0.0,0.0,0
22.0,-60.0,-32.0,-3.0,-5.0,-2.0,-32.0,10.0,0.0,0.0,0.0,0.0,0.0,0.0,0.0,0.0,0
13.0,-59.0,-40.0,-8.0,-2.0,-1.0,-25.0,-4.0,0.0,0.0,0.0,0.0,0.0,0.0,0.0,0.0,0
42.0,-16.0,-33.0,-4.0,-3.0,-10.0,-32.0,5.0,0.0,0.0,0.0,0.0,0.0,0.0,0.0,0.0,0
76.0,21.0,-31.0,-2.0,-9.0,-6.0,-31.0,13.0,0.0,0.0,0.0,0.0,0.0,0.0,0.0,0.0,0
55.0,15.0,-38.0,-3.0,-8.0,7.0,-19.0,6.0,0.0,0.0,0.0,0.0,0.0,0.0,0.0,0.0,0
25.0,9.0,-25.0,-1.0,-6.0,5.0,-11.0,11.0,0.0,0.0,0.0,0.0,0.0,0.0,0.0,0.0,0
-13.0,14.0,2.0,-7.0,2.0,8.0,7.0,6.0,0.0,0.0,0.0,0.0,0.0,0.0,0.0,0.0,0
-48.0,10.0,15.0,-9.0,-6.0,8.0,16.0,-1.0,0.0,0.0,0.0,0.0,0.0,0.0,0.0,0.0,0
-43.0,2.0,12.0,-5.0,-3.0,-3.0,19.0,-7.0,0.0,0.0,0.0,0.0,0.0,0.0,0.0,0.0,0
-51.0,-3.0,24.0,1.0,4.0,0.0,33.0,-16.0,0.0,0.0,0.0,0.0,0.0,0.0,0.0,0.0,0
-64.0,4.0,57.0,8.0,2.0,0.0,36.0,-17.0,0.0,0.0,0.0,0.0,0.0,0.0,0.0,0.0,0
-53.0,0.0,63.0,24.0,7.0,0.0,23.0,-17.0,0.0,0.0,0.0,0.0,0.0,0.0,0.0,0.0,0
-22.0,6.0,33.0,14.0,6.0,4.0,20.0,-10.0,0.0,0.0,0.0,0.0,0.0,0.0,0.0,0.0,0
-2.0,-9.0,-2.0,-11.0,0.0,7.0,9.0,-12.0,0.0,0.0,0.0,0.0,0.0,0.0,0.0,0.0,0
18.0,-5.0,-32.0,-32.0,-16.0,-9.0,1.0,-18.0,0.0,0.0,0.0,0.0,0.0,0.0,0.0,0.0,0
50.0,13.0,-37.0,-25.0,-14.0,-22.0,-5.0,-10.0,0.0,0.0,0.0,0.0,0.0,0.0,0.0,0.0,0
41.0,11.0,-4.0,-1.0,-4.0,-12.0,-7.0,-2.0,0.0,0.0,0.0,0.0,0.0,0.0,0.0,0.0,0
11.0,-8.0,-10.0,3.0,-9.0,-4.0,-4.0,5.0,0.0,0.0,0.0,0.0,0.0,0.0,0.0,0.0,0
-3.0,-27.0,-34.0,-9.0,-5.0,-10.0,-14.0,1.0,0.0,0.0,0.0,0.0,0.0,0.0,0.0,0.0,0
-3.0,-35.0,-33.0,-12.0,-5.0,-9.0,-33.0,5.0,0.0,0.0,0.0,0.0,0.0,0.0,0.0,0.0,0
-9.0,-28.0,-11.0,10.0,6.0,-10.0,-33.0,4.0,0.0,0.0,0.0,0.0,0.0,0.0,0.0,0.0,0
-8.0,-16.0,4.0,26.0,8.0,0.0,-24.0,3.0,0.0,0.0,0.0,0.0,0.0,0.0,0.0,0.0,0
25.0,-3.0,-11.0,17.0,-4.0,3.0,-29.0,6.0,0.0,0.0,0.0,0.0,0.0,0.0,0.0,0.0,0
48.0,15.0,-31.0,-17.0,-6.0,0.0,-28.0,9.0,0.0,0.0,0.0,0.0,0.0,0.0,0.0,0.0,0
27.0,47.0,-12.0,-16.0,-6.0,2.0,-23.0,9.0,0.0,0.0,0.0,0.0,0.0,0.0,0.0,0.0,0
-5.0,32.0,1.0,-15.0,-7.0,-2.0,-23.0,12.0,0.0,0.0,0.0,0.0,0.0,0.0,0.0,0.0,0
-32.0,-2.0,0.0,-7.0,-7.0,-2.0,-4.0,4.0,0.0,0.0,0.0,0.0,0.0,0.0,0.0,0.0,0
-50.0,-33.0,3.0,5.0,-4.0,4.0,17.0,-2.0,0.0,0.0,0.0,0.0,0.0,0.0,0.0,0.0,0
-35.0,-38.0,7.0,14.0,7.0,9.0,33.0,-5.0,0.0,0.0,0.0,0.0,0.0,0.0,0.0,0.0,0
-20.0,-19.0,27.0,20.0,6.0,17.0,42.0,-7.0,0.0,0.0,0.0,0.0,0.0,0.0,0.0,0.0,0
-2.0,13.0,34.0,5.0,4.0,2.0,35.0,-16.0,0.0,0.0,0.0,0.0,0.0,0.0,0.0,0.0,0
11.0,17.0,21.0,-7.0,4.0,-11.0,17.0,-21.0,0.0,0.0,0.0,0.0,0.0,0.0,0.0,0.0,0
-1.0,18.0,11.0,-2.0,2.0,-11.0,21.0,-13.0,0.0,0.0,0.0,0.0,0.0,0.0,0.0,0.0,0
-4.0,26.0,14.0,-1.0,1.0,-11.0,15.0,-11.0,0.0,0.0,0.0,0.0,0.0,0.0,0.0,0.0,0
-7.0,18.0,17.0,-5.0,0.0,-6.0,9.0,-14.0,0.0,0.0,0.0,0.0,0.0,0.0,0.0,0.0,0
-22.0,4.0,1.0,-15.0,-5.0,-4.0,-7.0,-12.0,0.0,0.0,0.0,0.0,0.0,0.0,0.0,0.0,0
-38.0,-8.0,-15.0,-17.0,-18.0,-9.0,-17.0,-7.0,0.0,0.0,0.0,0.0,0.0,0.0,0.0,0.0,0
-33.0,-31.0,-17.0,-13.0,-17.0,-8.0,-17.0,-8.0,0.0,0.0,0.0,0.0,0.0,0.0,0.0,0.0,0
6.0,-41.0,-20.0,-6.0,-4.0,-6.0,-17.0,-1.0,0.0,0.0,0.0,0.0,0.0,0.0,0.0,0.0,0
41.0,-31.0,-35.0,0.0,-2.0,-5.0,-28.0,5.0,0.0,0.0,0.0,0.0,0.0,0.0,0.0,0.0,0
49.0,-16.0,-37.0,-4.0,0.0,-5.0,-31.0,6.0,0.0,0.0,0.0,0.0,0.0,0.0,0.0,0.0,0
40.0,0.0,-40.0,-5.0,-6.0,-4.0,-23.0,7.0,0.0,0.0,0.0,0.0,0.0,0.0,0.0,0.0,0
49.0,22.0,-30.0,-8.0,-7.0,-5.0,-30.0,11.0,0.0,0.0,0.0,0.0,0.0,0.0,0.0,0.0,0
34.0,13.0,-12.0,0.0,1.0,4.0,-26.0,22.0,0.0,0.0,0.0,0.0,0.0,0.0,0.0,0.0,0
-23.0,-11.0,3.0,5.0,0.0,7.0,-17.0,21.0,0.0,0.0,0.0,0.0,0.0,0.0,0.0,0.0,0
-52.0,-27.0,-1.0,-2.0,-2.0,4.0,-14.0,3.0,0.0,0.0,0.0,0.0,0.0,0.0,0.0,0.0,0
-38.0,-20.0,2.0,-3.0,-3.0,0.0,0.0,0.0,0.0,0.0,0.0,0.0,0.0,0.0,0.0,0.0,0
-28.0,-6.0,15.0,11.0,0.0,3.0,17.0,-9.0,0.0,0.0,0.0,0.0,0.0,0.0,0.0,0.0,0
-17.0,14.0,30.0,21.0,18.0,7.0,27.0,-15.0,0.0,0.0,0.0,0.0,0.0,0.0,0.0,0.0,0
-16.0,32.0,41.0,25.0,15.0,9.0,34.0,-16.0,0.0,0.0,0.0,0.0,0.0,0.0,0.0,0.0,0
5.0,35.0,31.0,6.0,0.0,5.0,33.0,-25.0,0.0,0.0,0.0,0.0,0.0,0.0,0.0,0.0,0
29.0,22.0,18.0,-14.0,-12.0,-5.0,22.0,-14.0,0.0,0.0,0.0,0.0,0.0,0.0,0.0,0.0,0
-8.0,10.0,3.0,-15.0,-11.0,-9.0,14.0,-7.0,0.0,0.0,0.0,0.0,0.0,0.0,0.0,0.0,0
-49.0,-22.0,-1.0,-18.0,-6.0,-2.0,14.0,-6.0,0.0,0.0,0.0,0.0,0.0,0.0,0.0,0.0,0
-60.0,-27.0,-1.0,-22.0,-6.0,-7.0,9.0,-6.0,0.0,0.0,0.0,0.0,0.0,0.0,0.0,0.0,0
-27.0,-17.0,-10.0,-20.0,-8.0,-7.0,-3.0,-10.0,0.0,0.0,0.0,0.0,0.0,0.0,0.0,0.0,0
0.0,4.0,-7.0,-7.0,-8.0,-6.0,-11.0,-7.0,0.0,0.0,0.0,0.0,0.0,0.0,0.0,0.0,0
18.0,-1.0,-10.0,-12.0,-7.0,-11.0,-12.0,-5.0,0.0,0.0,0.0,0.0,0.0,0.0,0.0,0.0,0
53.0,-3.0,-19.0,-5.0,-3.0,-9.0,-16.0,-5.0,0.0,0.0,0.0,0.0,0.0,0.0,0.0,0.0,0
76.0,-9.0,-22.0,7.0,-4.0,-6.0,-33.0,4.0,0.0,0.0,0.0,0.0,0.0,0.0,0.0,0.0,0
67.0,-5.0,0.0,23.0,3.0,-5.0,-33.0,14.0,0.0,0.0,0.0,0.0,0.0,0.0,0.0,0.0,0
26.0,8.0,22.0,34.0,11.0,-1.0,-24.0,14.0,0.0,0.0,0.0,0.0,0.0,0.0,0.0,0.0,0
-32.0,-41.0,-23.0,14.0,8.0,-4.0,-25.0,10.0,0.0,0.0,0.0,0.0,0.0,0.0,0.0,0.0,0
-44.0,-49.0,-73.0,-18.0,-3.0,-2.0,-31.0,9.0,0.0,0.0,0.0,0.0,0.0,0.0,0.0,0.0,0
-26.0,-12.0,-53.0,-30.0,-9.0,7.0,-17.0,11.0,0.0,0.0,0.0,0.0,0.0,0.0,0.0,0.0,0
-23.0,2.0,-32.0,-26.0,-9.0,0.0,-13.0,9.0,0.0,0.0,0.0,0.0,0.0,0.0,0.0,0.0,0
-19.0,9.0,-1.0,-9.0,-6.0,-2.0,-4.0,5.0,0.0,0.0,0.0,0.0,0.0,0.0,0.0,0.0,0
-10.0,4.0,28.0,8.0,-5.0,6.0,13.0,1.0,0.0,0.0,0.0,0.0,0.0,0.0,0.0,0.0,0
9.0,11.0,26.0,-1.0,4.0,4.0,22.0,-9.0,0.0,0.0,0.0,0.0,0.0,0.0,0.0,0.0,0
5.0,33.0,36.0,-1.0,2.0,1.0,36.0,-22.0,0.0,0.0,0.0,0.0,0.0,0.0,0.0,0.0,0
-18.0,16.0,44.0,9.0,-3.0,6.0,46.0,-17.0,0.0,0.0,0.0,0.0,0.0,0.0,0.0,0.0,0
-25.0,4.0,40.0,15.0,7.0,3.0,33.0,-10.0,0.0,0.0,0.0,0.0,0.0,0.0,0.0,0.0,0
-8.0,18.0,40.0,15.0,5.0,-5.0,17.0,-9.0,0.0,0.0,0.0,0.0,0.0,0.0,0.0,0.0,0
-13.0,22.0,36.0,16.0,4.0,-7.0,15.0,-16.0,0.0,0.0,0.0,0.0,0.0,0.0,0.0,0.0,0
-27.0,2.0,16.0,-6.0,-2.0,-4.0,0.0,-20.0,0.0,0.0,0.0,0.0,0.0,0.0,0.0,0.0,0
-23.0,-46.0,-24.0,-20.0,-15.0,-12.0,-11.0,-9.0,0.0,0.0,0.0,0.0,0.0,0.0,0.0,0.0,0
-8.0,-65.0,-66.0,-23.0,-11.0,-9.0,-16.0,-3.0,0.0,0.0,0.0,0.0,0.0,0.0,0.0,0.0,0
5.0,-29.0,-69.0,-23.0,-2.0,-11.0,-13.0,-3.0,0.0,0.0,0.0,0.0,0.0,0.0,0.0,0.0,0
0.0,4.0,-46.0,-18.0,-4.0,-14.0,-11.0,-3.0,0.0,0.0,0.0,0.0,0.0,0.0,0.0,0.0,0
26.0,19.0,-10.0,8.0,1.0,-12.0,-27.0,5.0,0.0,0.0,0.0,0.0,0.0,0.0,0.0,0.0,0
41.0,23.0,18.0,14.0,2.0,-2.0,-31.0,6.0,0.0,0.0,0.0,0.0,0.0,0.0,0.0,0.0,0
39.0,12.0,17.0,7.0,-3.0,-3.0,-28.0,9.0,0.0,0.0,0.0,0.0,0.0,0.0,0.0,0.0,0
32.0,-13.0,-20.0,-7.0,-10.0,-9.0,-26.0,15.0,0.0,0.0,0.0,0.0,0.0,0.0,0.0,0.0,0
26.0,-25.0,-30.0,-10.0,-1.0,-5.0,-32.0,11.0,0.0,0.0,0.0,0.0,0.0,0.0,0.0,0.0,0
1.0,-24.0,-27.0,-7.0,-4.0,4.0,-30.0,8.0,0.0,0.0,0.0,0.0,0.0,0.0,0.0,0.0,0
-6.0,-16.0,-24.0,-5.0,1.0,10.0,-16.0,3.0,0.0,0.0,0.0,0.0,0.0,0.0,0.0,0.0,0
-7.0,5.0,-6.0,7.0,4.0,11.0,0.0,2.0,0.0,0.0,0.0,0.0,0.0,0.0,0.0,0.0,0
-13.0,9.0,24.0,20.0,4.0,9.0,14.0,-2.0,0.0,0.0,0.0,0.0,0.0,0.0,0.0,0.0,0
-20.0,1.0,37.0,8.0,4.0,4.0,32.0,-8.0,0.0,0.0,0.0,0.0,0.0,0.0,0.0,0.0,0
-39.0,5.0,49.0,6.0,0.0,1.0,41.0,-15.0,0.0,0.0,0.0,0.0,0.0,0.0,0.0,0.0,0
-53.0,26.0,50.0,6.0,-6.0,-4.0,29.0,-20.0,0.0,0.0,0.0,0.0,0.0,0.0,0.0,0.0,0
-47.0,15.0,24.0,-5.0,-4.0,-10.0,17.0,-18.0,0.0,0.0,0.0,0.0,0.0,0.0,0.0,0.0,0
-44.0,-15.0,-7.0,-13.0,3.0,-10.0,19.0,-14.0,0.0,0.0,0.0,0.0,0.0,0.0,0.0,0.0,0
-33.0,-26.0,-25.0,-20.0,5.0,-9.0,17.0,-4.0,0.0,0.0,0.0,0.0,0.0,0.0,0.0,0.0,0
-8.0,-6.0,-31.0,-21.0,0.0,-1.0,12.0,-10.0,0.0,0.0,0.0,0.0,0.0,0.0,0.0,0.0,0
22.0,13.0,-18.0,-19.0,-8.0,-7.0,-2.0,-6.0,0.0,0.0,0.0,0.0,0.0,0.0,0.0,0.0,0
44.0,15.0,-11.0,-14.0,-9.0,-8.0,-8.0,-9.0,0.0,0.0,0.0,0.0,0.0,0.0,0.0,0.0,0
42.0,3.0,2.0,-1.0,-4.0,-8.0,-13.0,-5.0,0.0,0.0,0.0,0.0,0.0,0.0,0.0,0.0,0
22.0,-17.0,3.0,3.0,4.0,-7.0,-18.0,-5.0,0.0,0.0,0.0,0.0,0.0,0.0,0.0,0.0,0
22.0,-14.0,-6.0,7.0,-7.0,-5.0,-33.0,3.0,0.0,0.0,0.0,0.0,0.0,0.0,0.0,0.0,0
21.0,-22.0,-13.0,5.0,-3.0,-7.0,-33.0,7.0,0.0,0.0,0.0,0.0,0.0,0.0,0.0,0.0,0
0.0,-30.0,-20.0,9.0,0.0,-2.0,-17.0,8.0,0.0,0.0,0.0,0.0,0.0,0.0,0.0,0.0,0
-6.0,-6.0,-14.0,12.0,-1.0,-6.0,-28.0,11.0,0.0,0.0,0.0,0.0,0.0,0.0,0.0,0.0,0
3.0,12.0,-7.0,11.0,-1.0,-1.0,-37.0,17.0,0.0,0.0,0.0,0.0,0.0,0.0,0.0,0.0,0
9.0,14.0,-3.0,2.0,-4.0,8.0,-23.0,17.0,0.0,0.0,0.0,0.0,0.0,0.0,0.0,0.0,0
4.0,-2.0,-2.0,3.0,0.0,2.0,-14.0,5.0,0.0,0.0,0.0,0.0,0.0,0.0,0.0,0.0,0
2.0,-4.0,-8.0,4.0,2.0,9.0,7.0,0.0,0.0,0.0,0.0,0.0,0.0,0.0,0.0,0.0,0
-8.0,7.0,1.0,3.0,-2.0,8.0,19.0,-4.0,0.0,0.0,0.0,0.0,0.0,0.0,0.0,0.0,0
-21.0,15.0,19.0,-3.0,-1.0,3.0,21.0,-9.0,0.0,0.0,0.0,0.0,0.0,0.0,0.0,0.0,0
-29.0,7.0,8.0,-23.0,-5.0,-2.0,30.0,-21.0,0.0,0.0,0.0,0.0,0.0,0.0,0.0,0.0,0
-25.0,-13.0,-16.0,-30.0,-12.0,-4.0,39.0,-17.0,0.0,0.0,0.0,0.0,0.0,0.0,0.0,0.0,0
-35.0,-16.0,-15.0,-23.0,-15.0,-12.0,22.0,-14.0,0.0,0.0,0.0,0.0,0.0,0.0,0.0,0.0,0
-48.0,-19.0,9.0,-7.0,-2.0,-8.0,22.0,-9.0,0.0,0.0,0.0,0.0,0.0,0.0,0.0,0.0,0
-44.0,0.0,36.0,10.0,4.0,-5.0,15.0,-15.0,0.0,0.0,0.0,0.0,0.0,0.0,0.0,0.0,0
-22.0,9.0,37.0,16.0,14.0,-2.0,11.0,-7.0,0.0,0.0,0.0,0.0,0.0,0.0,0.0,0.0,0
17.0,7.0,23.0,9.0,-2.0,-12.0,-2.0,0.0,0.0,0.0,0.0,0.0,0.0,0.0,0.0,0.0,0
44.0,25.0,7.0,-7.0,-6.0,-7.0,-14.0,0.0,0.0,0.0,0.0,0.0,0.0,0.0,0.0,0.0,0
29.0,21.0,-18.0,-19.0,-7.0,-8.0,-14.0,-7.0,0.0,0.0,0.0,0.0,0.0,0.0,0.0,0.0,0
19.0,1.0,-25.0,-8.0,-2.0,-9.0,-24.0,-6.0,0.0,0.0,0.0,0.0,0.0,0.0,0.0,0.0,0
35.0,-6.0,-31.0,-2.0,-3.0,-10.0,-35.0,11.0,0.0,0.0,0.0,0.0,0.0,0.0,0.0,0.0,0
29.0,-12.0,-23.0,11.0,-6.0,-1.0,-32.0,10.0,0.0,0.0,0.0,0.0,0.0,0.0,0.0,0.0,0
1.0,-16.0,-6.0,22.0,-4.0,-2.0,-16.0,1.0,0.0,0.0,0.0,0.0,0.0,0.0,0.0,0.0,0
11.0,-26.0,-17.0,13.0,-1.0,4.0,-24.0,-1.0,0.0,0.0,0.0,0.0,0.0,0.0,0.0,0.0,0
2.0,-35.0,-43.0,-18.0,-11.0,8.0,-28.0,15.0,0.0,0.0,0.0,0.0,0.0,0.0,0.0,0.0,0
-6.0,-28.0,-22.0,-17.0,-3.0,0.0,-16.0,9.0,0.0,0.0,0.0,0.0,0.0,0.0,0.0,0.0,0
-8.0,-19.0,-10.0,-5.0,0.0,-7.0,-18.0,6.0,0.0,0.0,0.0,0.0,0.0,0.0,0.0,0.0,0
-18.0,-16.0,-28.0,-16.0,-3.0,-2.0,-9.0,4.0,0.0,0.0,0.0,0.0,0.0,0.0,0.0,0.0,0
-23.0,2.0,-24.0,-20.0,-1.0,4.0,8.0,-7.0,0.0,0.0,0.0,0.0,0.0,0.0,0.0,0.0,0
-10.0,34.0,11.0,-2.0,3.0,4.0,28.0,-16.0,0.0,0.0,0.0,0.0,0.0,0.0,0.0,0.0,0
-7.0,53.0,47.0,15.0,-1.0,7.0,40.0,-16.0,0.0,0.0,0.0,0.0,0.0,0.0,0.0,0.0,0
-23.0,18.0,60.0,22.0,12.0,6.0,49.0,-7.0,0.0,0.0,0.0,0.0,0.0,0.0,0.0,0.0,0
-46.0,-1.0,49.0,11.0,12.0,3.0,27.0,-11.0,0.0,0.0,0.0,0.0,0.0,0.0,0.0,0.0,0
-47.0,5.0,25.0,-3.0,1.0,-7.0,15.0,-13.0,0.0,0.0,0.0,0.0,0.0,0.0,0.0,0.0,0
-9.0,0.0,2.0,-15.0,-9.0,-9.0,7.0,-13.0,0.0,0.0,0.0,0.0,0.0,0.0,0.0,0.0,0
26.0,-3.0,-8.0,-22.0,-10.0,-6.0,4.0,-8.0,0.0,0.0,0.0,0.0,0.0,0.0,0.0,0.0,0
24.0,2.0,-9.0,-9.0,-7.0,-6.0,-5.0,-6.0,0.0,0.0,0.0,0.0,0.0,0.0,0.0,0.0,0
9.0,12.0,3.0,6.0,-8.0,-7.0,-13.0,-7.0,0.0,0.0,0.0,0.0,0.0,0.0,0.0,0.0,0
10.0,-4.0,7.0,10.0,-6.0,-9.0,-9.0,-6.0,0.0,0.0,0.0,0.0,0.0,0.0,0.0,0.0,0
-6.0,-24.0,-7.0,3.0,-4.0,-11.0,-13.0,-7.0,0.0,0.0,0.0,0.0,0.0,0.0,0.0,0.0,0
-11.0,-31.0,-37.0,-5.0,-6.0,-13.0,-32.0,4.0,0.0,0.0,0.0,0.0,0.0,0.0,0.0,0.0,0
7.0,-22.0,-26.0,-5.0,-5.0,-6.0,-31.0,9.0,0.0,0.0,0.0,0.0,0.0,0.0,0.0,0.0,0
37.0,-1.0,-20.0,3.0,3.0,4.0,-22.0,-2.0,0.0,0.0,0.0,0.0,0.0,0.0,0.0,0.0,0
49.0,-16.0,-53.0,-20.0,-8.0,-8.0,-34.0,4.0,0.0,0.0,0.0,0.0,0.0,0.0,0.0,0.0,0
31.0,-17.0,-70.0,-25.0,-12.0,2.0,-34.0,23.0,0.0,0.0,0.0,0.0,0.0,0.0,0.0,0.0,0
12.0,11.0,-22.0,-8.0,-4.0,7.0,-20.0,17.0,0.0,0.0,0.0,0.0,0.0,0.0,0.0,0.0,0
-10.0,24.0,20.0,8.0,0.0,15.0,-12.0,8.0,0.0,0.0,0.0,0.0,0.0,0.0,0.0,0.0,0
-38.0,5.0,16.0,8.0,5.0,11.0,6.0,5.0,0.0,0.0,0.0,0.0,0.0,0.0,0.0,0.0,0
-45.0,-8.0,23.0,6.0,4.0,6.0,19.0,1.0,0.0,0.0,0.0,0.0,0.0,0.0,0.0,0.0,0
