CH1,CH2,CH3,CH4,CH5,CH6,CH7,CH8,CH9,CH10,CH11,CH12,CH13,CH14,CH15,CH16,label
1270.0,-1989.0,520.0,-463.0,845.0,-10091.0,1131.0,-1277.0,0.0,0.0,0.0,0.0,0.0,0.0,0.0,0.0,0
-402.0,629.0,-185.0,139.0,-271.0,3228.0,-366.0,408.0,0.0,0.0,0.0,0.0,0.0,0.0,0.0,0.0,0
-825.0,1310.0,-349.0,299.0,-554.0,6638.0,-750.0,842.0,0.0,0.0,0.0,0.0,0.0,0.0,0.0,0.0,0
-703.0,1115.0,-278.0,262.0,-471.0,5606.0,-638.0,707.0,0.0,0.0,0.0,0.0,0.0,0.0,0.0,0.0,0
-419.0,631.0,-164.0,154.0,-278.0,3229.0,-372.0,406.0,0.0,0.0,0.0,0.0,0.0,0.0,0.0,0.0,0
-76.0,73.0,-26.0,22.0,-42.0,457.0,-51.0,58.0,0.0,0.0,0.0,0.0,0.0,0.0,0.0,0.0,0
273.0,-444.0,120.0,-105.0,184.0,-2267.0,265.0,-288.0,0.0,0.0,0.0,0.0,0.0,0.0,0.0,0.0,0
508.0,-776.0,214.0,-178.0,328.0,-3972.0,450.0,-500.0,0.0,0.0,0.0,0.0,0.0,0.0,0.0,0.0,0
487.0,-769.0,202.0,-175.0,318.0,-3839.0,431.0,-488.0,0.0,0.0,0.0,0.0,0.0,0.0,0.0,0.0,0
268.0,-466.0,131.0,-105.0,194.0,-2272.0,257.0,-292.0,0.0,0.0,0.0,0.0,0.0,0.0,0.0,0.0,0
59.0,-140.0,50.0,-34.0,61.0,-663.0,82.0,-92.0,0.0,0.0,0.0,0.0,0.0,0.0,0.0,0.0,0
-27.0,14.0,-27.0,-26.0,-16.0,81.0,-10.0,-2.0,0.0,0.0,0.0,0.0,0.0,0.0,0.0,0.0,0
-38.0,78.0,-58.0,-27.0,-46.0,302.0,-37.0,32.0,0.0,0.0,0.0,0.0,0.0,0.0,0.0,0.0,0
-91.0,165.0,-68.0,8.0,-72.0,766.0,-94.0,94.0,0.0,0.0,0.0,0.0,0.0,0.0,0.0,0.0,0
-185.0,284.0,-102.0,58.0,-119.0,1460.0,-164.0,174.0,0.0,0.0,0.0,0.0,0.0,0.0,0.0,0.0,0
-186.0,312.0,-104.0,74.0,-132.0,1622.0,-189.0,196.0,0.0,0.0,0.0,0.0,0.0,0.0,0.0,0.0,0
-39.0,194.0,-41.0,65.0,-67.0,897.0,-115.0,117.0,0.0,0.0,0.0,0.0,0.0,0.0,0.0,0.0,0
64.0,6.0,26.0,33.0,18.0,-72.0,4.0,8.0,0.0,0.0,0.0,0.0,0.0,0.0,0.0,0.0,0
32.0,-81.0,44.0,7.0,35.0,-417.0,38.0,-38.0,0.0,0.0,0.0,0.0,0.0,0.0,0.0,0.0,0
-51.0,-35.0,26.0,13.0,1.0,-100.0,-3.0,-3.0,0.0,0.0,0.0,0.0,0.0,0.0,0.0,0.0,0
-81.0,11.0,10.0,16.0,-18.0,126.0,-26.0,10.0,0.0,0.0,0.0,0.0,0.0,0.0,0.0,0.0,0
36.0,-48.0,10.0,-15.0,9.0,-211.0,8.0,-36.0,0.0,0.0,0.0,0.0,0.0,0.0,0.0,0.0,0
132.0,-146.0,7.0,-48.0,47.0,-661.0,55.0,-82.0,0.0,0.0,0.0,0.0,0.0,0.0,0.0,0.0,0
42.0,-148.0,2.0,-42.0,40.0,-541.0,57.0,-63.0,0.0,0.0,0.0,0.0,0.0,0.0,0.0,0.0,0
-40.0,-13.0,-10.0,-15.0,-12.0,68.0,5.0,8.0,0.0,0.0,0.0,0.0,0.0,0.0,0.0,0.0,0
-59.0,104.0,-8.0,9.0,-38.0,458.0,-32.0,53.0,0.0,0.0,0.0,0.0,0.0,0.0,0.0,0.0,0
-49.0,70.0,7.0,2.0,-16.0,224.0,2.0,16.0,0.0,0.0,0.0,0.0,0.0,0.0,0.0,0.0,0
-1.0,-18.0,10.0,-28.0,13.0,-222.0,42.0,-45.0,0.0,0.0,0.0,0.0,0.0,0.0,0.0,0.0,0
20.0,-48.0,-24.0,-34.0,7.0,-232.0,29.0,-43.0,0.0,0.0,0.0,0.0,0.0,0.0,0.0,0.0,0
-9.0,25.0,-48.0,-5.0,-20.0,189.0,-24.0,18.0,0.0,0.0,0.0,0.0,0.0,0.0,0.0,0.0,0
-19.0,102.0,-17.0,40.0,-23.0,423.0,-48.0,57.0,0.0,0.0,0.0,0.0,0.0,0.0,0.0,0.0,0
4.0,41.0,24.0,37.0,5.0,129.0,-17.0,21.0,0.0,0.0,0.0,0.0,0.0,0.0,0.0,0.0,0
49.0,-62.0,39.0,-4.0,27.0,-315.0,22.0,-45.0,0.0,0.0,0.0,0.0,0.0,0.0,0.0,0.0,0
68.0,-52.0,47.0,-13.0,17.0,-329.0,30.0,-52.0,0.0,0.0,0.0,0.0,0.0,0.0,0.0,0.0,0
21.0,32.0,21.0,9.0,-17.0,63.0,-16.0,5.0,0.0,0.0,0.0,0.0,0.0,0.0,0.0,0.0,0
-54.0,34.0,-43.0,6.0,-35.0,309.0,-49.0,47.0,0.0,0.0,0.0,0.0,0.0,0.0,0.0,0.0,0
-74.0,-42.0,-70.0,-15.0,-13.0,86.0,-23.0,17.0,0.0,0.0,0.0,0.0,0.0,0.0,0.0,0.0,0
-37.0,-97.0,-29.0,-31.0,21.0,-272.0,21.0,-39.0,0.0,0.0,0.0,0.0,0.0,0.0,0.0,0.0,0
-11.0,-82.0,-9.0,-20.0,20.0,-265.0,19.0,-33.0,0.0,0.0,0.0,0.0,0.0,0.0,0.0,0.0,0
14.0,40.0,-10.0,-5.0,-17.0,94.0,-36.0,18.0,0.0,0.0,0.0,0.0,0.0,0.0,0.0,0.0,0
23.0,105.0,0.0,15.0,-31.0,314.0,-48.0,43.0,0.0,0.0,0.0,0.0,0.0,0.0,0.0,0.0,0
61.0,65.0,13.0,12.0,-10.0,106.0,-21.0,24.0,0.0,0.0,0.0,0.0,0.0,0.0,0.0,0.0,0
71.0,-36.0,6.0,-5.0,13.0,-230.0,21.0,-24.0,0.0,0.0,0.0,0.0,0.0,0.0,0.0,0.0,0
22.0,-54.0,10.0,-5.0,21.0,-234.0,24.0,-39.0,0.0,0.0,0.0,0.0,0.0,0.0,0.0,0.0,0
-59.0,7.0,9.0,4.0,0.0,84.0,1.0,-5.0,0.0,0.0,0.0,0.0,0.0,0.0,0.0,0.0,0
-62.0,58.0,-5.0,8.0,-20.0,284.0,-14.0,28.0,0.0,0.0,0.0,0.0,0.0,0.0,0.0,0.0,0
-12.0,34.0,5.0,-5.0,0.0,93.0,13.0,1.0,0.0,0.0,0.0,0.0,0.0,0.0,0.0,0.0,0
-13.0,-73.0,19.0,-15.0,21.0,-212.0,41.0,-33.0,0.0,0.0,0.0,0.0,0.0,0.0,0.0,0.0,0
-55.0,-124.0,4.0,-7.0,14.0,-213.0,31.0,-30.0,0.0,0.0,0.0,0.0,0.0,0.0,0.0,0.0,0
-93.0,-48.0,-18.0,-2.0,-14.0,66.0,-6.0,-2.0,0.0,0.0,0.0,0.0,0.0,0.0,0.0,0.0,0
-73.0,27.0,-20.0,9.0,-31.0,234.0,-44.0,14.0,0.0,0.0,0.0,0.0,0.0,0.0,0.0,0.0,0
30.0,47.0,9.0,15.0,-9.0,70.0,-20.0,5.0,0.0,0.0,0.0,0.0,0.0,0.0,0.0,0.0,0
154.0,35.0,32.0,-2.0,25.0,-191.0,24.0,-6.0,0.0,0.0,0.0,0.0,0.0,0.0,0.0,0.0,0
144.0,34.0,11.0,-16.0,25.0,-190.0,26.0,-9.0,0.0,0.0,0.0,0.0,0.0,0.0,0.0,0.0,0
49.0,47.0,-26.0,-16.0,-23.0,62.0,-9.0,7.0,0.0,0.0,0.0,0.0,0.0,0.0,0.0,0.0,0
-22.0,61.0,-34.0,0.0,-33.0,212.0,-45.0,17.0,0.0,0.0,0.0,0.0,0.0,0.0,0.0,0.0,0
-57.0,12.0,-26.0,-6.0,-12.0,68.0,-27.0,5.0,0.0,0.0,0.0,0.0,0.0,0.0,0.0,0.0,0
-59.0,-66.0,-5.0,-10.0,10.0,-169.0,4.0,-27.0,0.0,0.0,0.0,0.0,0.0,0.0,0.0,0.0,0
-33.0,-76.0,8.0,-3.0,13.0,-173.0,1.0,-24.0,0.0,0.0,0.0,0.0,0.0,0.0,0.0,0.0,0
-23.0,-33.0,-10.0,12.0,-5.0,60.0,-24.0,7.0,0.0,0.0,0.0,0.0,0.0,0.0,0.0,0.0,0
-32.0,1.0,-17.0,13.0,-14.0,202.0,-30.0,30.0,0.0,0.0,0.0,0.0,0.0,0.0,0.0,0.0,0
-19.0,-20.0,-11.0,0.0,-1.0,68.0,-10.0,13.0,0.0,0.0,0.0,0.0,0.0,0.0,0.0,0.0,0
36.0,-49.0,5.0,-4.0,18.0,-152.0,10.0,-24.0,0.0,0.0,0.0,0.0,0.0,0.0,0.0,0.0,0
55.0,-18.0,17.0,-8.0,12.0,-158.0,21.0,-17.0,0.0,0.0,0.0,0.0,0.0,0.0,0.0,0.0,0
6.0,44.0,-5.0,-8.0,-8.0,46.0,1.0,4.0,0.0,0.0,0.0,0.0,0.0,0.0,0.0,0.0,0
-34.0,76.0,-7.0,-5.0,-21.0,175.0,-5.0,15.0,0.0,0.0,0.0,0.0,0.0,0.0,0.0,0.0,0
-55.0,32.0,12.0,-10.0,-14.0,54.0,13.0,-9.0,0.0,0.0,0.0,0.0,0.0,0.0,0.0,0.0,0
-35.0,-25.0,13.0,-17.0,1.0,-132.0,30.0,-24.0,0.0,0.0,0.0,0.0,0.0,0.0,0.0,0.0,0
6.0,-33.0,0.0,-10.0,9.0,-142.0,19.0,-20.0,0.0,0.0,0.0,0.0,0.0,0.0,0.0,0.0,0
38.0,11.0,-5.0,8.0,-4.0,44.0,-5.0,2.0,0.0,0.0,0.0,0.0,0.0,0.0,0.0,0.0,0
32.0,31.0,-1.0,18.0,-11.0,159.0,-15.0,20.0,0.0,0.0,0.0,0.0,0.0,0.0,0.0,0.0,0
4.0,-1.0,5.0,19.0,0.0,51.0,-7.0,8.0,0.0,0.0,0.0,0.0,0.0,0.0,0.0,0.0,0
2.0,-37.0,11.0,1.0,6.0,-135.0,7.0,-20.0,0.0,0.0,0.0,0.0,0.0,0.0,0.0,0.0,0
5.0,-30.0,10.0,-10.0,2.0,-133.0,9.0,-28.0,0.0,0.0,0.0,0.0,0.0,0.0,0.0,0.0,0
-13.0,16.0,-3.0,-4.0,-3.0,44.0,-11.0,-4.0,0.0,0.0,0.0,0.0,0.0,0.0,0.0,0.0,0
-28.0,31.0,-13.0,4.0,-10.0,144.0,-30.0,22.0,0.0,0.0,0.0,0.0,0.0,0.0,0.0,0.0,0
-15.0,4.0,-10.0,5.0,-5.0,45.0,-22.0,13.0,0.0,0.0,0.0,0.0,0.0,0.0,0.0,0.0,0
-1.0,-31.0,-16.0,-33.0,-2.0,-120.0,1.0,-15.0,0.0,0.0,0.0,0.0,0.0,0.0,0.0,0.0,0
-3.0,-53.0,-42.0,-43.0,-2.0,-123.0,-3.0,-17.0,0.0,0.0,0.0,0.0,0.0,0.0,0.0,0.0,0
35.0,-1.0,-45.0,-28.0,-15.0,30.0,-28.0,2.0,0.0,0.0,0.0,0.0,0.0,0.0,0.0,0.0,0
38.0,35.0,-29.0,-1.0,-10.0,132.0,-30.0,28.0,0.0,0.0,0.0,0.0,0.0,0.0,0.0,0.0,0
19.0,2.0,-3.0,17.0,-6.0,50.0,-6.0,15.0,0.0,0.0,0.0,0.0,0.0,0.0,0.0,0.0,0
14.0,-15.0,15.0,19.0,18.0,-94.0,16.0,-11.0,0.0,0.0,0.0,0.0,0.0,0.0,0.0,0.0,0
-7.0,-22.0,23.0,12.0,17.0,-95.0,21.0,-13.0,0.0,0.0,0.0,0.0,0.0,0.0,0.0,0.0,0
-28.0,7.0,25.0,21.0,-1.0,37.0,7.0,8.0,0.0,0.0,0.0,0.0,0.0,0.0,0.0,0.0,0
-56.0,13.0,27.0,18.0,-8.0,119.0,0.0,6.0,0.0,0.0,0.0,0.0,0.0,0.0,0.0,0.0,0
-61.0,-16.0,26.0,7.0,-3.0,40.0,12.0,-7.0,0.0,0.0,0.0,0.0,0.0,0.0,0.0,0.0,0
-29.0,-22.0,25.0,-12.0,2.0,-92.0,17.0,-20.0,0.0,0.0,0.0,0.0,0.0,0.0,0.0,0.0,0
-16.0,-7.0,19.0,-22.0,2.0,-95.0,14.0,-31.0,0.0,0.0,0.0,0.0,0.0,0.0,0.0,0.0,0
-11.0,29.0,6.0,-9.0,-7.0,20.0,-6.0,-8.0,0.0,0.0,0.0,0.0,0.0,0.0,0.0,0.0,0
6.0,49.0,-9.0,-7.0,-14.0,96.0,-18.0,6.0,0.0,0.0,0.0,0.0,0.0,0.0,0.0,0.0,0
32.0,25.0,-40.0,-26.0,-10.0,30.0,-5.0,2.0,0.0,0.0,0.0,0.0,0.0,0.0,0.0,0.0,0
49.0,-3.0,-31.0,-27.0,-4.0,-88.0,3.0,-9.0,0.0,0.0,0.0,0.0,0.0,0.0,0.0,0.0,0
37.0,-1.0,-4.0,-3.0,3.0,-82.0,3.0,-8.0,0.0,0.0,0.0,0.0,0.0,0.0,0.0,0.0,0
18.0,-15.0,-24.0,3.0,-5.0,33.0,-5.0,9.0,0.0,0.0,0.0,0.0,0.0,0.0,0.0,0.0,0
13.0,-33.0,-42.0,4.0,-11.0,100.0,-24.0,8.0,0.0,0.0,0.0,0.0,0.0,0.0,0.0,0.0,0
-3.0,-50.0,-28.0,2.0,-14.0,26.0,-24.0,-1.0,0.0,0.0,0.0,0.0,0.0,0.0,0.0,0.0,0
-26.0,-54.0,-3.0,-9.0,4.0,-81.0,-7.0,-13.0,0.0,0.0,0.0,0.0,0.0,0.0,0.0,0.0,0
-19.0,-23.0,-3.0,-13.0,15.0,-71.0,-1.0,-3.0,0.0,0.0,0.0,0.0,0.0,0.0,0.0,0.0,0
-12.0,15.0,-7.0,-1.0,3.0,19.0,-13.0,14.0,0.0,0.0,0.0,0.0,0.0,0.0,0.0,0.0,0
-21.0,33.0,8.0,10.0,-5.0,85.0,-17.0,17.0,0.0,0.0,0.0,0.0,0.0,0.0,0.0,0.0,0
-7.0,40.0,31.0,20.0,-3.0,30.0,-11.0,6.0,0.0,0.0,0.0,0.0,0.0,0.0,0.0,0.0,0
27.0,36.0,46.0,24.0,13.0,-65.0,-2.0,-15.0,0.0,0.0,0.0,0.0,0.0,0.0,0.0,0.0,0
23.0,11.0,34.0,21.0,12.0,-65.0,12.0,-16.0,0.0,0.0,0.0,0.0,0.0,0.0,0.0,0.0,0
-5.0,4.0,12.0,5.0,-9.0,24.0,12.0,4.0,0.0,0.0,0.0,0.0,0.0,0.0,0.0,0.0,0
-26.0,-6.0,-8.0,-14.0,-21.0,77.0,4.0,6.0,0.0,0.0,0.0,0.0,0.0,0.0,0.0,0.0,0
-57.0,-48.0,-24.0,-29.0,-4.0,24.0,12.0,-7.0,0.0,0.0,0.0,0.0,0.0,0.0,0.0,0.0,0
-50.0,-64.0,-17.0,-20.0,4.0,-61.0,16.0,-18.0,0.0,0.0,0.0,0.0,0.0,0.0,0.0,0.0,0
-32.0,-52.0,-16.0,-15.0,3.0,-60.0,13.0,-16.0,0.0,0.0,0.0,0.0,0.0,0.0,0.0,0.0,0
26.0,-3.0,-24.0,-13.0,-6.0,23.0,6.0,0.0,0.0,0.0,0.0,0.0,0.0,0.0,0.0,0.0,0
52.0,69.0,-13.0,-7.0,-6.0,64.0,0.0,10.0,0.0,0.0,0.0,0.0,0.0,0.0,0.0,0.0,0
40.0,77.0,4.0,-2.0,-7.0,14.0,-5.0,1.0,0.0,0.0,0.0,0.0,0.0,0.0,0.0,0.0,0
36.0,42.0,17.0,0.0,0.0,-61.0,-1.0,-14.0,0.0,0.0,0.0,0.0,0.0,0.0,0.0,0.0,0
38.0,35.0,13.0,-5.0,-1.0,-62.0,-2.0,-18.0,0.0,0.0,0.0,0.0,0.0,0.0,0.0,0.0,0
17.0,21.0,-4.0,-18.0,-17.0,12.0,-17.0,-8.0,0.0,0.0,0.0,0.0,0.0,0.0,0.0,0.0,0
-29.0,-24.0,-23.0,-16.0,-21.0,57.0,-30.0,11.0,0.0,0.0,0.0,0.0,0.0,0.0,0.0,0.0,0
-72.0,-84.0,-27.0,-4.0,-4.0,15.0,-19.0,-3.0,0.0,0.0,0.0,0.0,0.0,0.0,0.0,0.0,0
-84.0,-116.0,-15.0,14.0,13.0,-51.0,-8.0,-11.0,0.0,0.0,0.0,0.0,0.0,0.0,0.0,0.0,0
-37.0,-73.0,-4.0,14.0,11.0,-45.0,-11.0,3.0,0.0,0.0,0.0,0.0,0.0,0.0,0.0,0.0,0
-1.0,-25.0,-18.0,12.0,4.0,26.0,-13.0,16.0,0.0,0.0,0.0,0.0,0.0,0.0,0.0,0.0,0
15.0,11.0,-11.0,16.0,-5.0,58.0,-12.0,15.0,0.0,0.0,0.0,0.0,0.0,0.0,0.0,0.0,0
60.0,66.0,33.0,29.0,7.0,11.0,-10.0,5.0,0.0,0.0,0.0,0.0,0.0,0.0,0.0,0.0,0
80.0,66.0,29.0,8.0,9.0,-45.0,14.0,3.0,0.0,0.0,0.0,0.0,0.0,0.0,0.0,0.0,0
43.0,47.0,11.0,-9.0,-5.0,-40.0,20.0,-1.0,0.0,0.0,0.0,0.0,0.0,0.0,0.0,0.0,0
-10.0,40.0,0.0,-25.0,-16.0,21.0,10.0,-5.0,0.0,0.0,0.0,0.0,0.0,0.0,0.0,0.0,0
-34.0,33.0,5.0,-32.0,-12.0,54.0,7.0,-5.0,0.0,0.0,0.0,0.0,0.0,0.0,0.0,0.0,0
-33.0,-1.0,5.0,-22.0,-5.0,16.0,13.0,-11.0,0.0,0.0,0.0,0.0,0.0,0.0,0.0,0.0,0
-19.0,-34.0,-5.0,-9.0,-4.0,-49.0,9.0,-22.0,0.0,0.0,0.0,0.0,0.0,0.0,0.0,0.0,0
-11.0,-32.0,3.0,2.0,2.0,-52.0,6.0,-16.0,0.0,0.0,0.0,0.0,0.0,0.0,0.0,0.0,0
-27.0,-23.0,-2.0,11.0,-2.0,6.0,-5.0,-10.0,0.0,0.0,0.0,0.0,0.0,0.0,0.0,0.0,0
-27.0,-24.0,-25.0,-8.0,-12.0,33.0,-15.0,1.0,0.0,0.0,0.0,0.0,0.0,0.0,0.0,0.0,0
-12.0,-39.0,-34.0,-17.0,-15.0,5.0,-8.0,7.0,0.0,0.0,0.0,0.0,0.0,0.0,0.0,0.0,0
15.0,-32.0,-22.0,-5.0,-2.0,-34.0,6.0,4.0,0.0,0.0,0.0,0.0,0.0,0.0,0.0,0.0,0
13.0,0.0,4.0,13.0,7.0,-31.0,8.0,0.0,0.0,0.0,0.0,0.0,0.0,0.0,0.0,0.0,0
-4.0,28.0,24.0,20.0,8.0,15.0,-2.0,1.0,0.0,0.0,0.0,0.0,0.0,0.0,0.0,0.0,0
-8.0,44.0,33.0,17.0,5.0,40.0,-16.0,7.0,0.0,0.0,0.0,0.0,0.0,0.0,0.0,0.0,0
-1.0,27.0,39.0,17.0,10.0,17.0,-13.0,7.0,0.0,0.0,0.0,0.0,0.0,0.0,0.0,0.0,0
-5.0,-12.0,6.0,-3.0,-3.0,-37.0,-5.0,-2.0,0.0,0.0,0.0,0.0,0.0,0.0,0.0,0.0,0
-4.0,-33.0,-45.0,-28.0,-13.0,-48.0,-17.0,-10.0,0.0,0.0,0.0,0.0,0.0,0.0,0.0,0.0,0
12.0,-28.0,-66.0,-31.0,-13.0,1.0,-28.0,-5.0,0.0,0.0,0.0,0.0,0.0,0.0,0.0,0.0,0
11.0,-11.0,-60.0,-17.0,-9.0,37.0,-21.0,7.0,0.0,0.0,0.0,0.0,0.0,0.0,0.0,0.0,0
19.0,-2.0,-29.0,-7.0,-5.0,11.0,-11.0,8.0,0.0,0.0,0.0,0.0,0.0,0.0,0.0,0.0,0
41.0,11.0,6.0,-3.0,-7.0,-25.0,2.0,-9.0,0.0,0.0,0.0,0.0,0.0,0.0,0.0,0.0,0
25.0,8.0,24.0,2.0,1.0,-26.0,14.0,-6.0,0.0,0.0,0.0,0.0,0.0,0.0,0.0,0.0,0
-5.0,16.0,37.0,13.0,2.0,9.0,12.0,2.0,0.0,0.0,0.0,0.0,0.0,0.0,0.0,0.0,0
-27.0,25.0,44.0,5.0,0.0,37.0,19.0,1.0,0.0,0.0,0.0,0.0,0.0,0.0,0.0,0.0,0
-33.0,10.0,24.0,-8.0,-8.0,16.0,15.0,-7.0,0.0,0.0,0.0,0.0,0.0,0.0,0.0,0.0,0
-50.0,-30.0,6.0,-10.0,-1.0,-31.0,13.0,-11.0,0.0,0.0,0.0,0.0,0.0,0.0,0.0,0.0,0
-51.0,-45.0,0.0,-4.0,7.0,-41.0,12.0,-10.0,0.0,0.0,0.0,0.0,0.0,0.0,0.0,0.0,0
-44.0,-21.0,-9.0,10.0,1.0,6.0,4.0,-2.0,0.0,0.0,0.0,0.0,0.0,0.0,0.0,0.0,0
-4.0,14.0,-14.0,13.0,3.0,32.0,-10.0,0.0,0.0,0.0,0.0,0.0,0.0,0.0,0.0,0.0,0
20.0,16.0,-23.0,3.0,0.0,16.0,-10.0,-4.0,0.0,0.0,0.0,0.0,0.0,0.0,0.0,0.0,0
33.0,4.0,-13.0,-9.0,-7.0,-25.0,-6.0,-7.0,0.0,0.0,0.0,0.0,0.0,0.0,0.0,0.0,0
37.0,19.0,6.0,-7.0,-3.0,-26.0,0.0,-10.0,0.0,0.0,0.0,0.0,0.0,0.0,0.0,0.0,0
30.0,22.0,12.0,-3.0,2.0,10.0,-9.0,-7.0,0.0,0.0,0.0,0.0,0.0,0.0,0.0,0.0,0
13.0,15.0,-6.0,-12.0,-5.0,20.0,-13.0,9.0,0.0,0.0,0.0,0.0,0.0,0.0,0.0,0.0,0
11.0,-20.0,-22.0,-17.0,-12.0,-2.0,-5.0,12.0,0.0,0.0,0.0,0.0,0.0,0.0,0.0,0.0,0
-13.0,-48.0,-26.0,-11.0,-6.0,-34.0,-7.0,1.0,0.0,0.0,0.0,0.0,0.0,0.0,0.0,0.0,0
-27.0,-45.0,-18.0,-1.0,-2.0,-29.0,-16.0,-1.0,0.0,0.0,0.0,0.0,0.0,0.0,0.0,0.0,0
-15.0,-17.0,-4.0,12.0,1.0,1.0,-22.0,1.0,0.0,0.0,0.0,0.0,0.0,0.0,0.0,0.0,0
-1.0,12.0,0.0,17.0,-1.0,21.0,-20.0,0.0,0.0,0.0,0.0,0.0,0.0,0.0,0.0,0.0,0
15.0,22.0,7.0,9.0,2.0,8.0,-14.0,0.0,0.0,0.0,0.0,0.0,0.0,0.0,0.0,0.0,0
29.0,27.0,29.0,5.0,7.0,-17.0,1.0,0.0,0.0,0.0,0.0,0.0,0.0,0.0,0.0,0.0,0
-7.0,18.0,15.0,-8.0,0.0,-9.0,19.0,8.0,0.0,0.0,0.0,0.0,0.0,0.0,0.0,0.0,0
-69.0,-8.0,-9.0,-12.0,-10.0,21.0,17.0,7.0,0.0,0.0,0.0,0.0,0.0,0.0,0.0,0.0,0
-74.0,-12.0,-11.0,-7.0,-8.0,32.0,17.0,-2.0,0.0,0.0,0.0,0.0,0.0,0.0,0.0,0.0,0
-13.0,-16.0,-14.0,-15.0,1.0,8.0,23.0,-12.0,0.0,0.0,0.0,0.0,0.0,0.0,0.0,0.0,0
44.0,-22.0,-13.0,-11.0,-3.0,-24.0,9.0,-18.0,0.0,0.0,0.0,0.0,0.0,0.0,0.0,0.0,0
52.0,-19.0,-15.0,-8.0,-10.0,-31.0,-3.0,-12.0,0.0,0.0,0.0,0.0,0.0,0.0,0.0,0.0,0
8.0,-15.0,-14.0,-13.0,-7.0,-9.0,-4.0,-6.0,0.0,0.0,0.0,0.0,0.0,0.0,0.0,0.0,0
-21.0,23.0,17.0,10.0,-1.0,17.0,8.0,-3.0,0.0,0.0,0.0,0.0,0.0,0.0,0.0,0.0,0
-18.0,31.0,28.0,15.0,4.0,5.0,-1.0,-16.0,0.0,0.0,0.0,0.0,0.0,0.0,0.0,0.0,0
39.0,8.0,15.0,5.0,3.0,-21.0,-13.0,-16.0,0.0,0.0,0.0,0.0,0.0,0.0,0.0,0.0,0
34.0,18.0,20.0,7.0,0.0,-15.0,-2.0,2.0,0.0,0.0,0.0,0.0,0.0,0.0,0.0,0.0,0
1.0,16.0,12.0,3.0,-8.0,3.0,-6.0,12.0,0.0,0.0,0.0,0.0,0.0,0.0,0.0,0.0,0
-34.0,2.0,-15.0,-16.0,-11.0,11.0,-13.0,19.0,0.0,0.0,0.0,0.0,0.0,0.0,0.0,0.0,0
-54.0,-12.0,-18.0,-5.0,-1.0,-8.0,-14.0,11.0,0.0,0.0,0.0,0.0,0.0,0.0,0.0,0.0,0
-42.0,-7.0,-14.0,-4.0,-2.0,-19.0,-6.0,-8.0,0.0,0.0,0.0,0.0,0.0,0.0,0.0,0.0,0
30.0,7.0,-35.0,-12.0,-5.0,-14.0,-20.0,-19.0,0.0,0.0,0.0,0.0,0.0,0.0,0.0,0.0,0
62.0,-21.0,-58.0,-17.0,-10.0,5.0,-26.0,-3.0,0.0,0.0,0.0,0.0,0.0,0.0,0.0,0.0,0
41.0,-31.0,-40.0,-11.0,-2.0,18.0,-15.0,5.0,0.0,0.0,0.0,0.0,0.0,0.0,0.0,0.0,0
-14.0,-78.0,-23.0,-17.0,-8.0,3.0,-5.0,-1.0,0.0,0.0,0.0,0.0,0.0,0.0,0.0,0.0,0
-39.0,-71.0,12.0,0.0,-4.0,-10.0,3.0,-3.0,0.0,0.0,0.0,0.0,0.0,0.0,0.0,0.0,0
-45.0,-23.0,21.0,15.0,11.0,-8.0,12.0,7.0,0.0,0.0,0.0,0.0,0.0,0.0,0.0,0.0,0
-25.0,35.0,24.0,17.0,17.0,21.0,9.0,7.0,0.0,0.0,0.0,0.0,0.0,0.0,0.0,0.0,0
-3.0,46.0,30.0,15.0,8.0,25.0,16.0,3.0,0.0,0.0,0.0,0.0,0.0,0.0,0.0,0.0,0
-10.0,50.0,35.0,13.0,0.0,3.0,19.0,-6.0,0.0,0.0,0.0,0.0,0.0,0.0,0.0,0.0,0
7.0,37.0,29.0,1.0,-2.0,-16.0,9.0,-9.0,0.0,0.0,0.0,0.0,0.0,0.0,0.0,0.0,0
18.0,28.0,27.0,4.0,-2.0,-15.0,6.0,-11.0,0.0,0.0,0.0,0.0,0.0,0.0,0.0,0.0,0
13.0,23.0,9.0,-10.0,-10.0,0.0,4.0,-16.0,0.0,0.0,0.0,0.0,0.0,0.0,0.0,0.0,0
4.0,5.0,-32.0,-29.0,-21.0,0.0,-4.0,-12.0,0.0,0.0,0.0,0.0,0.0,0.0,0.0,0.0,0
-2.0,-18.0,-58.0,-41.0,-23.0,-12.0,-13.0,-12.0,0.0,0.0,0.0,0.0,0.0,0.0,0.0,0.0,0
-9.0,-43.0,-43.0,-27.0,-15.0,-18.0,-14.0,-13.0,0.0,0.0,0.0,0.0,0.0,0.0,0.0,0.0,0
1.0,-28.0,-7.0,2.0,2.0,-13.0,-6.0,1.0,0.0,0.0,0.0,0.0,0.0,0.0,0.0,0.0,0
-6.0,-19.0,13.0,17.0,3.0,5.0,-5.0,10.0,0.0,0.0,0.0,0.0,0.0,0.0,0.0,0.0,0
-27.0,-21.0,5.0,18.0,8.0,13.0,-9.0,9.0,0.0,0.0,0.0,0.0,0.0,0.0,0.0,0.0,0
-3.0,-9.0,-2.0,19.0,15.0,5.0,-2.0,9.0,0.0,0.0,0.0,0.0,0.0,0.0,0.0,0.0,0
27.0,2.0,4.0,10.0,12.0,-9.0,0.0,1.0,0.0,0.0,0.0,0.0,0.0,0.0,0.0,0.0,0
14.0,2.0,9.0,2.0,5.0,-7.0,-16.0,4.0,0.0,0.0,0.0,0.0,0.0,0.0,0.0,0.0,0
-3.0,-1.0,-2.0,6.0,-5.0,1.0,-16.0,5.0,0.0,0.0,0.0,0.0,0.0,0.0,0.0,0.0,0
4.0,2.0,-20.0,-14.0,-10.0,9.0,-17.0,-3.0,0.0,0.0,0.0,0.0,0.0,0.0,0.0,0.0,0
22.0,7.0,-28.0,-27.0,-7.0,0.0,-17.0,-1.0,0.0,0.0,0.0,0.0,0.0,0.0,0.0,0.0,0
6.0,4.0,-22.0,-26.0,-9.0,-6.0,-7.0,4.0,0.0,0.0,0.0,0.0,0.0,0.0,0.0,0.0,0
-15.0,-4.0,-7.0,-16.0,-6.0,-12.0,4.0,2.0,0.0,0.0,0.0,0.0,0.0,0.0,0.0,0.0,0
-25.0,-7.0,5.0,-5.0,-3.0,-3.0,14.0,-3.0,0.0,0.0,0.0,0.0,0.0,0.0,0.0,0.0,0
-26.0,-6.0,23.0,10.0,-3.0,2.0,15.0,-14.0,0.0,0.0,0.0,0.0,0.0,0.0,0.0,0.0,0
-12.0,14.0,51.0,26.0,1.0,0.0,15.0,-18.0,0.0,0.0,0.0,0.0,0.0,0.0,0.0,0.0,0
-9.0,27.0,42.0,19.0,0.0,0.0,17.0,0.0,0.0,0.0,0.0,0.0,0.0,0.0,0.0,0.0,0
-15.0,16.0,8.0,3.0,-5.0,-2.0,11.0,1.0,0.0,0.0,0.0,0.0,0.0,0.0,0.0,0.0,0
-19.0,-4.0,-27.0,-4.0,-1.0,6.0,0.0,-6.0,0.0,0.0,0.0,0.0,0.0,0.0,0.0,0.0,0
-12.0,-14.0,-46.0,-18.0,-10.0,7.0,-6.0,-1.0,0.0,0.0,0.0,0.0,0.0,0.0,0.0,0.0,0
6.0,-15.0,-32.0,-20.0,-9.0,-7.0,-7.0,2.0,0.0,0.0,0.0,0.0,0.0,0.0,0.0,0.0,0
-10.0,-28.0,-21.0,-16.0,-7.0,-17.0,-11.0,0.0,0.0,0.0,0.0,0.0,0.0,0.0,0.0,0.0,0
3.0,-23.0,-7.0,-2.0,1.0,-17.0,-7.0,-12.0,0.0,0.0,0.0,0.0,0.0,0.0,0.0,0.0,0
58.0,15.0,31.0,23.0,6.0,8.0,-4.0,-13.0,0.0,0.0,0.0,0.0,0.0,0.0,0.0,0.0,0
60.0,4.0,52.0,42.0,24.0,22.0,3.0,-5.0,0.0,0.0,0.0,0.0,0.0,0.0,0.0,0.0,0
-28.0,-48.0,-12.0,-3.0,1.0,-8.0,-20.0,7.0,0.0,0.0,0.0,0.0,0.0,0.0,0.0,0.0,0
-45.0,-45.0,-49.0,-34.0,-23.0,-21.0,-17.0,4.0,0.0,0.0,0.0,0.0,0.0,0.0,0.0,0.0,0
-20.0,-13.0,-35.0,-34.0,-21.0,-16.0,-18.0,3.0,0.0,0.0,0.0,0.0,0.0,0.0,0.0,0.0,0
6.0,47.0,-12.0,-8.0,-6.0,-7.0,-21.0,6.0,0.0,0.0,0.0,0.0,0.0,0.0,0.0,0.0,0
9.0,63.0,7.0,9.0,2.0,7.0,-10.0,10.0,0.0,0.0,0.0,0.0,0.0,0.0,0.0,0.0,0
14.0,56.0,12.0,10.0,1.0,13.0,-7.0,2.0,0.0,0.0,0.0,0.0,0.0,0.0,0.0,0.0,0
30.0,33.0,-1.0,-1.0,0.0,3.0,-1.0,-2.0,0.0,0.0,0.0,0.0,0.0,0.0,0.0,0.0,0
34.0,-8.0,-24.0,-13.0,-1.0,-4.0,12.0,-6.0,0.0,0.0,0.0,0.0,0.0,0.0,0.0,0.0,0
4.0,-41.0,-21.0,-2.0,-2.0,1.0,17.0,-8.0,0.0,0.0,0.0,0.0,0.0,0.0,0.0,0.0,0
-41.0,-53.0,19.0,12.0,5.0,2.0,9.0,-3.0,0.0,0.0,0.0,0.0,0.0,0.0,0.0,0.0,0
-68.0,-43.0,24.0,4.0,6.0,3.0,13.0,-9.0,0.0,0.0,0.0,0.0,0.0,0.0,0.0,0.0,0
-51.0,-22.0,29.0,1.0,1.0,2.0,21.0,-8.0,0.0,0.0,0.0,0.0,0.0,0.0,0.0,0.0,0
-23.0,5.0,29.0,6.0,2.0,0.0,7.0,-8.0,0.0,0.0,0.0,0.0,0.0,0.0,0.0,0.0,0
-4.0,24.0,35.0,10.0,0.0,1.0,2.0,-8.0,0.0,0.0,0.0,0.0,0.0,0.0,0.0,0.0,0
5.0,38.0,40.0,17.0,-6.0,-2.0,-2.0,-7.0,0.0,0.0,0.0,0.0,0.0,0.0,0.0,0.0,0
16.0,29.0,21.0,7.0,-9.0,-4.0,-6.0,3.0,0.0,0.0,0.0,0.0,0.0,0.0,0.0,0.0,0
31.0,-12.0,-60.0,-24.0,-12.0,-12.0,-7.0,1.0,0.0,0.0,0.0,0.0,0.0,0.0,0.0,0.0,0
10.0,-43.0,-93.0,-40.0,-3.0,-14.0,-5.0,-4.0,0.0,0.0,0.0,0.0,0.0,0.0,0.0,0.0,0
0.0,-35.0,-81.0,-44.0,-12.0,-9.0,-9.0,-7.0,0.0,0.0,0.0,0.0,0.0,0.0,0.0,0.0,0
31.0,-23.0,-58.0,-40.0,-19.0,-2.0,-19.0,1.0,0.0,0.0,0.0,0.0,0.0,0.0,0.0,0.0,0
39.0,-2.0,-19.0,-10.0,0.0,-2.0,-14.0,3.0,0.0,0.0,0.0,0.0,0.0,0.0,0.0,0.0,0
6.0,13.0,27.0,11.0,8.0,-9.0,-4.0,-2.0,0.0,0.0,0.0,0.0,0.0,0.0,0.0,0.0,0
-23.0,5.0,37.0,16.0,-2.0,-13.0,-16.0,0.0,0.0,0.0,0.0,0.0,0.0,0.0,0.0,0.0,0
-32.0,-4.0,31.0,25.0,4.0,2.0,-18.0,5.0,0.0,0.0,0.0,0.0,0.0,0.0,0.0,0.0,0
-45.0,-6.0,31.0,30.0,2.0,7.0,-12.0,8.0,0.0,0.0,0.0,0.0,0.0,0.0,0.0,0.0,0
-41.0,4.0,24.0,34.0,10.0,9.0,-10.0,7.0,0.0,0.0,0.0,0.0,0.0,0.0,0.0,0.0,0
-10.0,9.0,17.0,27.0,11.0,9.0,3.0,-1.0,0.0,0.0,0.0,0.0,0.0,0.0,0.0,0.0,0
18.0,5.0,8.0,-1.0,1.0,-1.0,9.0,-6.0,0.0,0.0,0.0,0.0,0.0,0.0,0.0,0.0,0
26.0,-6.0,-16.0,-28.0,-13.0,-3.0,8.0,-15.0,0.0,0.0,0.0,0.0,0.0,0.0,0.0,0.0,0
31.0,8.0,-24.0,-30.0,-10.0,-5.0,19.0,-10.0,0.0,0.0,0.0,0.0,0.0,0.0,0.0,0.0,0
37.0,27.0,-12.0,-27.0,-5.0,-8.0,22.0,-5.0,0.0,0.0,0.0,0.0,0.0,0.0,0.0,0.0,0
29.0,22.0,-17.0,-26.0,-4.0,-5.0,16.0,-2.0,0.0,0.0,0.0,0.0,0.0,0.0,0.0,0.0,0
-11.0,-16.0,-8.0,-12.0,-4.0,-1.0,3.0,-5.0,0.0,0.0,0.0,0.0,0.0,0.0,0.0,0.0,0
-41.0,-33.0,4.0,6.0,0.0,2.0,-6.0,-8.0,0.0,0.0,0.0,0.0,0.0,0.0,0.0,0.0,0
-49.0,-18.0,8.0,3.0,-3.0,4.0,0.0,-9.0,0.0,0.0,0.0,0.0,0.0,0.0,0.0,0.0,0
-31.0,-3.0,9.0,0.0,-5.0,-5.0,-4.0,-10.0,0.0,0.0,0.0,0.0,0.0,0.0,0.0,0.0,0
-20.0,-4.0,35.0,14.0,0.0,-10.0,-12.0,-7.0,0.0,0.0,0.0,0.0,0.0,0.0,0.0,0.0,0
-20.0,4.0,34.0,15.0,-6.0,-11.0,-3.0,-6.0,0.0,0.0,0.0,0.0,0.0,0.0,0.0,0.0,0
-18.0,-4.0,-6.0,6.0,0.0,-5.0,-1.0,0.0,0.0,0.0,0.0,0.0,0.0,0.0,0.0,0.0,0
-15.0,-18.0,-29.0,4.0,-2.0,-9.0,-13.0,5.0,0.0,0.0,0.0,0.0,0.0,0.0,0.0,0.0,0
10.0,-12.0,-37.0,-1.0,1.0,-1.0,-17.0,15.0,0.0,0.0,0.0,0.0,0.0,0.0,0.0,0.0,0
41.0,-1.0,-37.0,-10.0,0.0,-4.0,-12.0,2.0,0.0,0.0,0.0,0.0,0.0,0.0,0.0,0.0,0
62.0,0.0,-36.0,-22.0,-3.0,1.0,-13.0,-5.0,0.0,0.0,0.0,0.0,0.0,0.0,0.0,0.0,0
66.0,7.0,-23.0,-6.0,-5.0,-3.0,-19.0,-1.0,0.0,0.0,0.0,0.0,0.0,0.0,0.0,0.0,0
31.0,10.0,2.0,5.0,1.0,1.0,-14.0,4.0,0.0,0.0,0.0,0.0,0.0,0.0,0.0,0.0,0
-11.0,-5.0,5.0,7.0,-1.0,3.0,-4.0,1.0,0.0,0.0,0.0,0.0,0.0,0.0,0.0,0.0,0
-17.0,-6.0,-13.0,-19.0,-5.0,-5.0,2.0,-5.0,0.0,0.0,0.0,0.0,0.0,0.0,0.0,0.0,0
-41.0,-13.0,4.0,-31.0,-8.0,-1.0,7.0,-4.0,0.0,0.0,0.0,0.0,0.0,0.0,0.0,0.0,0
-76.0,-11.0,29.0,-13.0,-2.0,6.0,6.0,-5.0,0.0,0.0,0.0,0.0,0.0,0.0,0.0,0.0,0
-90.0,-5.0,34.0,-5.0,-7.0,0.0,11.0,-2.0,0.0,0.0,0.0,0.0,0.0,0.0,0.0,0.0,0
-49.0,-10.0,14.0,0.0,-10.0,-9.0,6.0,-9.0,0.0,0.0,0.0,0.0,0.0,0.0,0.0,0.0,0
67.0,16.0,12.0,3.0,-5.0,-10.0,11.0,-20.0,0.0,0.0,0.0,0.0,0.0,0.0,0.0,0.0,0
85.0,31.0,9.0,12.0,10.0,6.0,15.0,-10.0,0.0,0.0,0.0,0.0,0.0,0.0,0.0,0.0,0
-10.0,-4.0,-13.0,10.0,4.0,-1.0,6.0,3.0,0.0,0.0,0.0,0.0,0.0,0.0,0.0,0.0,0
-25.0,-14.0,-11.0,14.0,2.0,-15.0,-3.0,3.0,0.0,0.0,0.0,0.0,0.0,0.0,0.0,0.0,0
19.0,-3.0,-1.0,16.0,3.0,-10.0,-2.0,4.0,0.0,0.0,0.0,0.0,0.0,0.0,0.0,0.0,0
2.0,2.0,-3.0,7.0,7.0,-4.0,-5.0,1.0,0.0,0.0,0.0,0.0,0.0,0.0,0.0,0.0,0
-15.0,3.0,3.0,8.0,8.0,1.0,-6.0,-14.0,0.0,0.0,0.0,0.0,0.0,0.0,0.0,0.0,0
-2.0,2.0,2.0,-2.0,-3.0,5.0,-2.0,-12.0,0.0,0.0,0.0,0.0,0.0,0.0,0.0,0.0,0
8.0,-12.0,-12.0,-17.0,-4.0,1.0,-11.0,-3.0,0.0,0.0,0.0,0.0,0.0,0.0,0.0,0.0,0
3.0,-21.0,-24.0,-15.0,-7.0,0.0,-17.0,2.0,0.0,0.0,0.0,0.0,0.0,0.0,0.0,0.0,0
-17.0,-7.0,1.0,-2.0,-3.0,-2.0,-8.0,1.0,0.0,0.0,0.0,0.0,0.0,0.0,0.0,0.0,0
-9.0,-1.0,6.0,-10.0,-10.0,-13.0,-10.0,7.0,0.0,0.0,0.0,0.0,0.0,0.0,0.0,0.0,0
5.0,-2.0,-1.0,-11.0,-7.0,-12.0,-22.0,8.0,0.0,0.0,0.0,0.0,0.0,0.0,0.0,0.0,0
-4.0,2.0,8.0,-6.0,-3.0,-1.0,-18.0,2.0,0.0,0.0,0.0,0.0,0.0,0.0,0.0,0.0,0
-5.0,-2.0,-31.0,-13.0,-10.0,4.0,-13.0,-1.0,0.0,0.0,0.0,0.0,0.0,0.0,0.0,0.0,0
7.0,-6.0,-47.0,-15.0,-10.0,-5.0,-6.0,-3.0,0.0,0.0,0.0,0.0,0.0,0.0,0.0,0.0,0
15.0,4.0,-27.0,-1.0,4.0,1.0,10.0,-5.0,0.0,0.0,0.0,0.0,0.0,0.0,0.0,0.0,0
17.0,-1.0,-11.0,5.0,16.0,6.0,11.0,-3.0,0.0,0.0,0.0,0.0,0.0,0.0,0.0,0.0,0
3.0,-1.0,4.0,-2.0,6.0,5.0,19.0,-1.0,0.0,0.0,0.0,0.0,0.0,0.0,0.0,0.0,0
-6.0,25.0,32.0,-1.0,-1.0,1.0,25.0,-6.0,0.0,0.0,0.0,0.0,0.0,0.0,0.0,0.0,0
-4.0,17.0,33.0,6.0,-5.0,-5.0,11.0,-5.0,0.0,0.0,0.0,0.0,0.0,0.0,0.0,0.0,0
-32.0,-17.0,32.0,-1.0,-4.0,-3.0,1.0,-11.0,0.0,0.0,0.0,0.0,0.0,0.0,0.0,0.0,0
-60.0,-51.0,12.0,-1.0,-7.0,2.0,6.0,-2.0,0.0,0.0,0.0,0.0,0.0,0.0,0.0,0.0,0
-57.0,-50.0,2.0,1.0,-6.0,1.0,-1.0,2.0,0.0,0.0,0.0,0.0,0.0,0.0,0.0,0.0,0
-26.0,-10.0,0.0,1.0,-1.0,-3.0,0.0,-4.0,0.0,0.0,0.0,0.0,0.0,0.0,0.0,0.0,0
-3.0,26.0,-3.0,-1.0,-1.0,-8.0,-6.0,-6.0,0.0,0.0,0.0,0.0,0.0,0.0,0.0,0.0,0
14.0,34.0,-14.0,-4.0,-5.0,-7.0,-11.0,-10.0,0.0,0.0,0.0,0.0,0.0,0.0,0.0,0.0,0
47.0,19.0,-24.0,-10.0,-5.0,-3.0,-9.0,-12.0,0.0,0.0,0.0,0.0,0.0,0.0,0.0,0.0,0
72.0,22.0,-25.0,-7.0,-9.0,-2.0,-17.0,-1.0,0.0,0.0,0.0,0.0,0.0,0.0,0.0,0.0,0
70.0,27.0,-9.0,-2.0,-3.0,-12.0,-23.0,2.0,0.0,0.0,0.0,0.0,0.0,0.0,0.0,0.0,0
26.0,6.0,8.0,8.0,0.0,-4.0,-8.0,7.0,0.0,0.0,0.0,0.0,0.0,0.0,0.0,0.0,0
-18.0,-22.0,7.0,5.0,2.0,0.0,-12.0,10.0,0.0,0.0,0.0,0.0,0.0,0.0,0.0,0.0,0
-53.0,-52.0,-18.0,-4.0,6.0,-2.0,-12.0,6.0,0.0,0.0,0.0,0.0,0.0,0.0,0.0,0.0,0
-44.0,-38.0,-23.0,-13.0,-1.0,0.0,-5.0,-1.0,0.0,0.0,0.0,0.0,0.0,0.0,0.0,0.0,0
-15.0,-17.0,-24.0,-16.0,1.0,2.0,-3.0,-3.0,0.0,0.0,0.0,0.0,0.0,0.0,0.0,0.0,0
-8.0,-4.0,-18.0,-10.0,-3.0,6.0,0.0,-4.0,0.0,0.0,0.0,0.0,0.0,0.0,0.0,0.0,0
0.0,11.0,7.0,6.0,1.0,5.0,8.0,-5.0,0.0,0.0,0.0,0.0,0.0,0.0,0.0,0.0,0
10.0,24.0,15.0,7.0,4.0,5.0,5.0,-6.0,0.0,0.0,0.0,0.0,0.0,0.0,0.0,0.0,0
-17.0,-3.0,25.0,2.0,-2.0,1.0,13.0,-8.0,0.0,0.0,0.0,0.0,0.0,0.0,0.0,0.0,0
-36.0,-11.0,24.0,0.0,-7.0,-7.0,16.0,-5.0,0.0,0.0,0.0,0.0,0.0,0.0,0.0,0.0,0
-16.0,-2.0,13.0,-10.0,-12.0,-15.0,9.0,-5.0,0.0,0.0,0.0,0.0,0.0,0.0,0.0,0.0,0
8.0,15.0,10.0,-10.0,-10.0,-10.0,-1.0,-5.0,0.0,0.0,0.0,0.0,0.0,0.0,0.0,0.0,0
15.0,15.0,-13.0,1.0,-7.0,-1.0,-4.0,-3.0,0.0,0.0,0.0,0.0,0.0,0.0,0.0,0.0,0
13.0,5.0,-27.0,1.0,2.0,2.0,2.0,-3.0,0.0,0.0,0.0,0.0,0.0,0.0,0.0,0.0,0
11.0,8.0,-18.0,-2.0,6.0,-5.0,-3.0,-3.0,0.0,0.0,0.0,0.0,0.0,0.0,0.0,0.0,0
6.0,11.0,2.0,3.0,6.0,-2.0,-5.0,3.0,0.0,0.0,0.0,0.0,0.0,0.0,0.0,0.0,0
-17.0,3.0,15.0,10.0,3.0,0.0,0.0,-1.0,0.0,0.0,0.0,0.0,0.0,0.0,0.0,0.0,0
-22.0,3.0,22.0,15.0,0.0,-3.0,-2.0,-8.0,0.0,0.0,0.0,0.0,0.0,0.0,0.0,0.0,0
-3.0,-18.0,-8.0,-1.0,-4.0,1.0,-12.0,-2.0,0.0,0.0,0.0,0.0,0.0,0.0,0.0,0.0,0
2.0,-26.0,-11.0,-14.0,-8.0,-4.0,-16.0,6.0,0.0,0.0,0.0,0.0,0.0,0.0,0.0,0.0,0
2.0,-21.0,-2.0,-16.0,-10.0,-5.0,-9.0,-5.0,0.0,0.0,0.0,0.0,0.0,0.0,0.0,0.0,0
7.0,-34.0,-28.0,-20.0,-11.0,-11.0,-19.0,2.0,0.0,0.0,0.0,0.0,0.0,0.0,0.0,0.0,0
21.0,-36.0,-43.0,-14.0,-5.0,-7.0,-27.0,4.0,0.0,0.0,0.0,0.0,0.0,0.0,0.0,0.0,0
16.0,-19.0,-20.0,11.0,3.0,3.0,-9.0,-1.0,0.0,0.0,0.0,0.0,0.0,0.0,0.0,0.0,0
-6.0,3.0,-24.0,3.0,-1.0,-2.0,0.0,0.0,0.0,0.0,0.0,0.0,0.0,0.0,0.0,0.0,0
-16.0,15.0,-38.0,-33.0,-8.0,-5.0,-2.0,4.0,0.0,0.0,0.0,0.0,0.0,0.0,0.0,0.0,0
2.0,22.0,-17.0,-27.0,-12.0,3.0,2.0,-2.0,0.0,0.0,0.0,0.0,0.0,0.0,0.0,0.0,0
1.0,28.0,26.0,7.0,-3.0,1.0,13.0,-2.0,0.0,0.0,0.0,0.0,0.0,0.0,0.0,0.0,0
-8.0,42.0,72.0,30.0,7.0,5.0,28.0,-3.0,0.0,0.0,0.0,0.0,0.0,0.0,0.0,0.0,0
-6.0,25.0,64.0,29.0,15.0,8.0,25.0,-10.0,0.0,0.0,0.0,0.0,0.0,0.0,0.0,0.0,0
-13.0,-9.0,37.0,15.0,3.0,-2.0,8.0,-10.0,0.0,0.0,0.0,0.0,0.0,0.0,0.0,0.0,0
-16.0,-35.0,18.0,11.0,-3.0,-2.0,2.0,-11.0,0.0,0.0,0.0,0.0,0.0,0.0,0.0,0.0,0
-8.0,-27.0,-13.0,-12.0,-12.0,-5.0,-5.0,-11.0,0.0,0.0,0.0,0.0,0.0,0.0,0.0,0.0,0
-10.0,0.0,-21.0,-23.0,-7.0,-9.0,-7.0,-4.0,0.0,0.0,0.0,0.0,0.0,0.0,0.0,0.0,0
-26.0,5.0,-15.0,-8.0,-2.0,-9.0,-5.0,-3.0,0.0,0.0,0.0,0.0,0.0,0.0,0.0,0.0,0
-23.0,5.0,-24.0,-20.0,0.0,-13.0,-11.0,-2.0,0.0,0.0,0.0,0.0,0.0,0.0,0.0,0.0,0
-2.0,-10.0,-34.0,-27.0,-7.0,-8.0,-1.0,-2.0,0.0,0.0,0.0,0.0,0.0,0.0,0.0,0.0,0
-5.0,-25.0,-43.0,-26.0,-18.0,-6.0,-3.0,-4.0,0.0,0.0,0.0,0.0,0.0,0.0,0.0,0.0,0
-23.0,-34.0,-41.0,-16.0,-14.0,-3.0,-10.0,3.0,0.0,0.0,0.0,0.0,0.0,0.0,0.0,0.0,0
9.0,-14.0,-10.0,11.0,4.0,6.0,-7.0,15.0,0.0,0.0,0.0,0.0,0.0,0.0,0.0,0.0,0
40.0,24.0,28.0,27.0,10.0,-3.0,-3.0,7.0,0.0,0.0,0.0,0.0,0.0,0.0,0.0,0.0,0
55.0,40.0,50.0,32.0,5.0,2.0,-11.0,-2.0,0.0,0.0,0.0,0.0,0.0,0.0,0.0,0.0,0
53.0,40.0,41.0,23.0,9.0,-5.0,-21.0,-3.0,0.0,0.0,0.0,0.0,0.0,0.0,0.0,0.0,0
34.0,14.0,6.0,4.0,0.0,-6.0,-19.0,-5.0,0.0,0.0,0.0,0.0,0.0,0.0,0.0,0.0,0
-2.0,-26.0,-26.0,-9.0,-13.0,-8.0,-17.0,1.0,0.0,0.0,0.0,0.0,0.0,0.0,0.0,0.0,0
-19.0,-52.0,-38.0,-16.0,-9.0,-2.0,-3.0,8.0,0.0,0.0,0.0,0.0,0.0,0.0,0.0,0.0,0
-54.0,-57.0,-39.0,-15.0,0.0,7.0,6.0,2.0,0.0,0.0,0.0,0.0,0.0,0.0,0.0,0.0,0
-48.0,-35.0,-33.0,-11.0,3.0,11.0,17.0,1.0,0.0,0.0,0.0,0.0,0.0,0.0,0.0,0.0,0
-42.0,-15.0,-13.0,-8.0,2.0,10.0,24.0,-8.0,0.0,0.0,0.0,0.0,0.0,0.0,0.0,0.0,0
-43.0,21.0,37.0,5.0,2.0,-5.0,21.0,-17.0,0.0,0.0,0.0,0.0,0.0,0.0,0.0,0.0,0
-4.0,47.0,56.0,7.0,-1.0,-6.0,6.0,-8.0,0.0,0.0,0.0,0.0,0.0,0.0,0.0,0.0,0
7.0,42.0,36.0,-6.0,-11.0,-5.0,-3.0,-1.0,0.0,0.0,0.0,0.0,0.0,0.0,0.0,0.0,0
1.0,25.0,18.0,-9.0,-14.0,0.0,0.0,-7.0,0.0,0.0,0.0,0.0,0.0,0.0,0.0,0.0,0
-16.0,0.0,-1.0,-21.0,-13.0,-6.0,0.0,-15.0,0.0,0.0,0.0,0.0,0.0,0.0,0.0,0.0,0
-5.0,0.0,-19.0,-21.0,-10.0,-15.0,-4.0,-7.0,0.0,0.0,0.0,0.0,0.0,0.0,0.0,0.0,0
25.0,-7.0,-32.0,-16.0,-7.0,-10.0,-5.0,3.0,0.0,0.0,0.0,0.0,0.0,0.0,0.0,0.0,0
34.0,-24.0,-41.0,-10.0,0.0,-4.0,-3.0,-4.0,0.0,0.0,0.0,0.0,0.0,0.0,0.0,0.0,0
39.0,-26.0,-34.0,-3.0,3.0,-6.0,1.0,1.0,0.0,0.0,0.0,0.0,0.0,0.0,0.0,0.0,0
36.0,-14.0,-15.0,11.0,9.0,-9.0,-11.0,9.0,0.0,0.0,0.0,0.0,0.0,0.0,0.0,0.0,0
8.0,-14.0,6.0,24.0,10.0,0.0,-12.0,5.0,0.0,0.0,0.0,0.0,0.0,0.0,0.0,0.0,0
-15.0,4.0,27.0,35.0,10.0,6.0,-2.0,-4.0,0.0,0.0,0.0,0.0,0.0,0.0,0.0,0.0,0
-28.0,7.0,28.0,26.0,3.0,5.0,-18.0,-2.0,0.0,0.0,0.0,0.0,0.0,0.0,0.0,0.0,0
-30.0,-11.0,12.0,7.0,-2.0,-3.0,-22.0,9.0,0.0,0.0,0.0,0.0,0.0,0.0,0.0,0.0,0
-12.0,-6.0,-3.0,-12.0,-7.0,-7.0,-14.0,8.0,0.0,0.0,0.0,0.0,0.0,0.0,0.0,0.0,0
-12.0,-8.0,-7.0,-15.0,-8.0,-7.0,-14.0,1.0,0.0,0.0,0.0,0.0,0.0,0.0,0.0,0.0,0
-16.0,-11.0,-23.0,-12.0,-16.0,1.0,-5.0,-3.0,0.0,0.0,0.0,0.0,0.0,0.0,0.0,0.0,0
-2.0,-5.0,-32.0,-25.0,-18.0,3.0,4.0,-6.0,0.0,0.0,0.0,0.0,0.0,0.0,0.0,0.0,0
10.0,12.0,-27.0,-26.0,-12.0,-3.0,19.0,-11.0,0.0,0.0,0.0,0.0,0.0,0.0,0.0,0.0,0
23.0,16.0,-8.0,-18.0,-2.0,3.0,28.0,-11.0,0.0,0.0,0.0,0.0,0.0,0.0,0.0,0.0,0
19.0,11.0,15.0,0.0,2.0,0.0,16.0,-13.0,0.0,0.0,0.0,0.0,0.0,0.0,0.0,0.0,0
-10.0,-5.0,14.0,-6.0,0.0,-8.0,-1.0,-19.0,0.0,0.0,0.0,0.0,0.0,0.0,0.0,0.0,0
-14.0,-6.0,9.0,-9.0,3.0,-4.0,-3.0,-5.0,0.0,0.0,0.0,0.0,0.0,0.0,0.0,0.0,0
-27.0,11.0,12.0,0.0,1.0,-3.0,2.0,3.0,0.0,0.0,0.0,0.0,0.0,0.0,0.0,0.0,0
-27.0,20.0,14.0,9.0,-5.0,-1.0,4.0,1.0,0.0,0.0,0.0,0.0,0.0,0.0,0.0,0.0,0
-12.0,-1.0,14.0,21.0,3.0,-1.0,3.0,3.0,0.0,0.0,0.0,0.0,0.0,0.0,0.0,0.0,0
-35.0,-11.0,10.0,23.0,6.0,-1.0,-6.0,-3.0,0.0,0.0,0.0,0.0,0.0,0.0,0.0,0.0,0
-42.0,-14.0,4.0,12.0,2.0,-3.0,-7.0,-8.0,0.0,0.0,0.0,0.0,0.0,0.0,0.0,0.0,0
14.0,-28.0,-24.0,-9.0,-7.0,-2.0,-8.0,-12.0,0.0,0.0,0.0,0.0,0.0,0.0,0.0,0.0,0
69.0,-25.0,-23.0,-9.0,-6.0,-4.0,-14.0,-5.0,0.0,0.0,0.0,0.0,0.0,0.0,0.0,0.0,0
43.0,-3.0,-4.0,11.0,2.0,-5.0,-8.0,8.0,0.0,0.0,0.0,0.0,0.0,0.0,0.0,0.0,0
22.0,2.0,-18.0,-13.0,-2.0,0.0,2.0,10.0,0.0,0.0,0.0,0.0,0.0,0.0,0.0,0.0,0
34.0,18.0,-16.0,-26.0,-7.0,-2.0,-12.0,12.0,0.0,0.0,0.0,0.0,0.0,0.0,0.0,0.0,0
28.0,32.0,-11.0,-15.0,-11.0,-3.0,-25.0,5.0,0.0,0.0,0.0,0.0,0.0,0.0,0.0,0.0,0
5.0,32.0,-6.0,-12.0,-9.0,-7.0,-24.0,-3.0,0.0,0.0,0.0,0.0,0.0,0.0,0.0,0.0,0
-9.0,13.0,-8.0,1.0,-1.0,-2.0,-19.0,-15.0,0.0,0.0,0.0,0.0,0.0,0.0,0.0,0.0,0
-35.0,-21.0,8.0,23.0,1.0,2.0,-3.0,-9.0,0.0,0.0,0.0,0.0,0.0,0.0,0.0,0.0,0
-60.0,-49.0,12.0,15.0,0.0,5.0,0.0,3.0,0.0,0.0,0.0,0.0,0.0,0.0,0.0,0.0,0
-46.0,-44.0,1.0,-6.0,-5.0,2.0,11.0,4.0,0.0,0.0,0.0,0.0,0.0,0.0,0.0,0.0,0
-29.0,-37.0,2.0,-15.0,-6.0,-4.0,25.0,-6.0,0.0,0.0,0.0,0.0,0.0,0.0,0.0,0.0,0
-19.0,-27.0,10.0,-11.0,-1.0,-6.0,25.0,-5.0,0.0,0.0,0.0,0.0,0.0,0.0,0.0,0.0,0
-12.0,-8.0,2.0,-15.0,5.0,-5.0,15.0,-7.0,0.0,0.0,0.0,0.0,0.0,0.0,0.0,0.0,0
3.0,27.0,-9.0,-12.0,2.0,-3.0,10.0,-3.0,0.0,0.0,0.0,0.0,0.0,0.0,0.0,0.0,0
28.0,71.0,2.0,-11.0,-1.0,-2.0,-3.0,-6.0,0.0,0.0,0.0,0.0,0.0,0.0,0.0,0.0,0
32.0,54.0,15.0,-5.0,-3.0,0.0,-9.0,-6.0,0.0,0.0,0.0,0.0,0.0,0.0,0.0,0.0,0
11.0,-8.0,-13.0,-9.0,-5.0,-5.0,-9.0,-7.0,0.0,0.0,0.0,0.0,0.0,0.0,0.0,0.0,0
-11.0,-35.0,-18.0,2.0,-5.0,-3.0,-9.0,-11.0,0.0,0.0,0.0,0.0,0.0,0.0,0.0,0.0,0
-9.0,-20.0,11.0,18.0,-5.0,3.0,-5.0,-3.0,0.0,0.0,0.0,0.0,0.0,0.0,0.0,0.0,0
5.0,-2.0,20.0,21.0,3.0,0.0,-1.0,1.0,0.0,0.0,0.0,0.0,0.0,0.0,0.0,0.0,0
11.0,-5.0,2.0,6.0,1.0,-11.0,-15.0,1.0,0.0,0.0,0.0,0.0,0.0,0.0,0.0,0.0,0
14.0,-14.0,-18.0,-5.0,-7.0,-8.0,-20.0,3.0,0.0,0.0,0.0,0.0,0.0,0.0,0.0,0.0,0
2.0,-11.0,-32.0,-10.0,-5.0,-8.0,-11.0,2.0,0.0,0.0,0.0,0.0,0.0,0.0,0.0,0.0,0
0.0,-6.0,-20.0,-7.0,-3.0,-4.0,-17.0,-1.0,0.0,0.0,0.0,0.0,0.0,0.0,0.0,0.0,0
12.0,7.0,-13.0,3.0,1.0,-4.0,-22.0,1.0,0.0,0.0,0.0,0.0,0.0,0.0,0.0,0.0,0
-2.0,-7.0,-5.0,-1.0,1.0,0.0,-16.0,8.0,0.0,0.0,0.0,0.0,0.0,0.0,0.0,0.0,0
-17.0,-10.0,-3.0,-6.0,1.0,0.0,-2.0,8.0,0.0,0.0,0.0,0.0,0.0,0.0,0.0,0.0,0
-9.0,-5.0,6.0,0.0,3.0,5.0,6.0,8.0,0.0,0.0,0.0,0.0,0.0,0.0,0.0,0.0,0
-5.0,-3.0,25.0,1.0,-2.0,5.0,14.0,1.0,0.0,0.0,0.0,0.0,0.0,0.0,0.0,0.0,0
-6.0,1.0,18.0,-2.0,-4.0,3.0,13.0,-6.0,0.0,0.0,0.0,0.0,0.0,0.0,0.0,0.0,0
-22.0,-1.0,4.0,-5.0,-1.0,-1.0,13.0,-19.0,0.0,0.0,0.0,0.0,0.0,0.0,0.0,0.0,0
-20.0,5.0,1.0,-8.0,-3.0,0.0,22.0,-14.0,0.0,0.0,0.0,0.0,0.0,0.0,0.0,0.0,0
-11.0,10.0,-1.0,1.0,-6.0,-10.0,11.0,-4.0,0.0,0.0,0.0,0.0,0.0,0.0,0.0,0.0,0
-2.0,4.0,3.0,6.0,-7.0,-6.0,1.0,-6.0,0.0,0.0,0.0,0.0,0.0,0.0,0.0,0.0,0
2.0,8.0,10.0,-7.0,-7.0,-5.0,-5.0,-5.0,0.0,0.0,0.0,0.0,0.0,0.0,0.0,0.0,0
7.0,1.0,-5.0,-14.0,-3.0,-1.0,-8.0,-8.0,0.0,0.0,0.0,0.0,0.0,0.0,0.0,0.0,0
-4.0,-10.0,-20.0,-12.0,-3.0,-3.0,-9.0,-14.0,0.0,0.0,0.0,0.0,0.0,0.0,0.0,0.0,0
1.0,-19.0,-19.0,-9.0,-4.0,-8.0,-2.0,-1.0,0.0,0.0,0.0,0.0,0.0,0.0,0.0,0.0,0
5.0,0.0,-14.0,-4.0,-1.0,-8.0,0.0,4.0,0.0,0.0,0.0,0.0,0.0,0.0,0.0,0.0,0
-2.0,8.0,-12.0,-2.0,-2.0,-5.0,-3.0,-1.0,0.0,0.0,0.0,0.0,0.0,0.0,0.0,0.0,0
-3.0,-8.0,-18.0,-9.0,-11.0,-11.0,-15.0,-6.0,0.0,0.0,0.0,0.0,0.0,0.0,0.0,0.0,0
-7.0,-14.0,-5.0,7.0,1.0,-1.0,-16.0,-1.0,0.0,0.0,0.0,0.0,0.0,0.0,0.0,0.0,0
0.0,0.0,18.0,14.0,-1.0,9.0,-13.0,4.0,0.0,0.0,0.0,0.0,0.0,0.0,0.0,0.0,0
18.0,15.0,11.0,13.0,10.0,7.0,-9.0,0.0,0.0,0.0,0.0,0.0,0.0,0.0,0.0,0.0,0
27.0,6.0,-11.0,-8.0,9.0,-2.0,-13.0,4.0,0.0,0.0,0.0,0.0,0.0,0.0,0.0,0.0,0
8.0,-15.0,-17.0,-11.0,-10.0,-12.0,-22.0,7.0,0.0,0.0,0.0,0.0,0.0,0.0,0.0,0.0,0
-12.0,-27.0,-12.0,-6.0,-11.0,-6.0,-17.0,6.0,0.0,0.0,0.0,0.0,0.0,0.0,0.0,0.0,0
-15.0,-26.0,-4.0,-7.0,-2.0,2.0,-1.0,1.0,0.0,0.0,0.0,0.0,0.0,0.0,0.0,0.0,0
-17.0,-14.0,6.0,4.0,2.0,8.0,9.0,2.0,0.0,0.0,0.0,0.0,0.0,0.0,0.0,0.0,0
-25.0,-6.0,0.0,3.0,0.0,20.0,18.0,-4.0,0.0,0.0,0.0,0.0,0.0,0.0,0.0,0.0,0
-26.0,0.0,-4.0,-5.0,8.0,12.0,24.0,-9.0,0.0,0.0,0.0,0.0,0.0,0.0,0.0,0.0,0
-16.0,23.0,16.0,-6.0,9.0,0.0,15.0,-16.0,0.0,0.0,0.0,0.0,0.0,0.0,0.0,0.0,0
-11.0,19.0,17.0,0.0,-8.0,-15.0,10.0,-13.0,0.0,0.0,0.0,0.0,0.0,0.0,0.0,0.0,0
15.0,25.0,16.0,2.0,-7.0,-11.0,3.0,-8.0,0.0,0.0,0.0,0.0,0.0,0.0,0.0,0.0,0
27.0,20.0,1.0,-3.0,-9.0,-8.0,-1.0,-8.0,0.0,0.0,0.0,0.0,0.0,0.0,0.0,0.0,0
4.0,2.0,-30.0,-12.0,-17.0,-5.0,2.0,-5.0,0.0,0.0,0.0,0.0,0.0,0.0,0.0,0.0,0
3.0,3.0,-33.0,-13.0,-14.0,-8.0,-5.0,-3.0,0.0,0.0,0.0,0.0,0.0,0.0,0.0,0.0,0
4.0,10.0,-5.0,-8.0,-4.0,-10.0,-14.0,-1.0,0.0,0.0,0.0,0.0,0.0,0.0,0.0,0.0,0
-26.0,-21.0,18.0,1.0,-3.0,-9.0,-11.0,-2.0,0.0,0.0,0.0,0.0,0.0,0.0,0.0,0.0,0
-43.0,-49.0,12.0,-2.0,-6.0,-3.0,-5.0,0.0,0.0,0.0,0.0,0.0,0.0,0.0,0.0,0.0,0
-33.0,-36.0,12.0,3.0,6.0,-2.0,-12.0,4.0,0.0,0.0,0.0,0.0,0.0,0.0,0.0,0.0,0
1.0,-1.0,9.0,4.0,14.0,-1.0,-13.0,5.0,0.0,0.0,0.0,0.0,0.0,0.0,0.0,0.0,0
76.0,28.0,4.0,13.0,14.0,7.0,-3.0,2.0,0.0,0.0,0.0,0.0,0.0,0.0,0.0,0.0,0
66.0,-9.0,-39.0,-4.0,0.0,4.0,-8.0,-2.0,0.0,0.0,0.0,0.0,0.0,0.0,0.0,0.0,0
9.0,-26.0,-61.0,-19.0,-3.0,-3.0,-14.0,3.0,0.0,0.0,0.0,0.0,0.0,0.0,0.0,0.0,0
-23.0,-12.0,-38.0,-10.0,-3.0,-5.0,-5.0,3.0,0.0,0.0,0.0,0.0,0.0,0.0,0.0,0.0,0
-28.0,-4.0,-15.0,-2.0,-11.0,-3.0,-4.0,6.0,0.0,0.0,0.0,0.0,0.0,0.0,0.0,0.0,0
-15.0,13.0,8.0,0.0,-8.0,-4.0,-8.0,5.0,0.0,0.0,0.0,0.0,0.0,0.0,0.0,0.0,0
-12.0,34.0,31.0,7.0,-14.0,-3.0,-7.0,-8.0,0.0,0.0,0.0,0.0,0.0,0.0,0.0,0.0,0
-26.0,20.0,55.0,14.0,-5.0,8.0,4.0,-9.0,0.0,0.0,0.0,0.0,0.0,0.0,0.0,0.0,0
-28.0,3.0,37.0,4.0,-1.0,7.0,14.0,-15.0,0.0,0.0,0.0,0.0,0.0,0.0,0.0,0.0,0
-2.0,-5.0,-9.0,-21.0,-5.0,-1.0,16.0,-12.0,0.0,0.0,0.0,0.0,0.0,0.0,0.0,0.0,0
-11.0,-15.0,-30.0,-21.0,-2.0,-9.0,12.0,-10.0,0.0,0.0,0.0,0.0,0.0,0.0,0.0,0.0,0
-14.0,-3.0,0.0,-8.0,2.0,-5.0,10.0,-5.0,0.0,0.0,0.0,0.0,0.0,0.0,0.0,0.0,0
13.0,1.0,22.0,10.0,4.0,-1.0,1.0,-1.0,0.0,0.0,0.0,0.0,0.0,0.0,0.0,0.0,0
31.0,-1.0,9.0,15.0,4.0,-3.0,-3.0,-6.0,0.0,0.0,0.0,0.0,0.0,0.0,0.0,0.0,0
22.0,1.0,3.0,13.0,2.0,-13.0,-6.0,-2.0,0.0,0.0,0.0,0.0,0.0,0.0,0.0,0.0,0
-2.0,-4.0,-8.0,2.0,1.0,-8.0,2.0,0.0,0.0,0.0,0.0,0.0,0.0,0.0,0.0,0.0,0
-42.0,-24.0,-14.0,-14.0,-9.0,-4.0,2.0,-2.0,0.0,0.0,0.0,0.0,0.0,0.0,0.0,0.0,0
-60.0,-41.0,-46.0,-32.0,-13.0,-3.0,-12.0,-5.0,0.0,0.0,0.0,0.0,0.0,0.0,0.0,0.0,0
-8.0,1.0,-37.0,-24.0,-10.0,-4.0,-16.0,3.0,0.0,0.0,0.0,0.0,0.0,0.0,0.0,0.0,0
30.0,12.0,-13.0,-7.0,2.0,-1.0,-15.0,5.0,0.0,0.0,0.0,0.0,0.0,0.0,0.0,0.0,0
25.0,7.0,1.0,3.0,4.0,2.0,-15.0,-3.0,0.0,0.0,0.0,0.0,0.0,0.0,0.0,0.0,0
23.0,4.0,6.0,4.0,-9.0,-2.0,-15.0,-1.0,0.0,0.0,0.0,0.0,0.0,0.0,0.0,0.0,0
26.0,6.0,8.0,10.0,-11.0,-2.0,-15.0,7.0,0.0,0.0,0.0,0.0,0.0,0.0,0.0,0.0,0
59.0,16.0,17.0,19.0,9.0,0.0,-4.0,9.0,0.0,0.0,0.0,0.0,0.0,0.0,0.0,0.0,0
34.0,9.0,14.0,12.0,9.0,-2.0,-7.0,-1.0,0.0,0.0,0.0,0.0,0.0,0.0,0.0,0.0,0
-19.0,-19.0,-15.0,3.0,5.0,0.0,-3.0,-5.0,0.0,0.0,0.0,0.0,0.0,0.0,0.0,0.0,0
-61.0,-21.0,-15.0,6.0,-3.0,-3.0,8.0,-1.0,0.0,0.0,0.0,0.0,0.0,0.0,0.0,0.0,0
-52.0,9.0,17.0,13.0,-6.0,7.0,7.0,3.0,0.0,0.0,0.0,0.0,0.0,0.0,0.0,0.0,0
-39.0,9.0,27.0,12.0,-2.0,11.0,15.0,-3.0,0.0,0.0,0.0,0.0,0.0,0.0,0.0,0.0,0
-33.0,-11.0,14.0,0.0,-4.0,-4.0,20.0,-16.0,0.0,0.0,0.0,0.0,0.0,0.0,0.0,0.0,0
-15.0,-15.0,-14.0,-21.0,-7.0,-10.0,5.0,-17.0,0.0,0.0,0.0,0.0,0.0,0.0,0.0,0.0,0
27.0,18.0,-3.0,-24.0,1.0,-5.0,1.0,-5.0,0.0,0.0,0.0,0.0,0.0,0.0,0.0,0.0,0
32.0,19.0,29.0,-17.0,0.0,-3.0,9.0,-1.0,0.0,0.0,0.0,0.0,0.0,0.0,0.0,0.0,0
-6.0,-16.0,3.0,-31.0,-10.0,-3.0,4.0,-1.0,0.0,0.0,0.0,0.0,0.0,0.0,0.0,0.0,0
-48.0,-44.0,-68.0,-61.0,-29.0,-10.0,-13.0,-2.0,0.0,0.0,0.0,0.0,0.0,0.0,0.0,0.0,0
-59.0,-40.0,-68.0,-41.0,-19.0,-10.0,-14.0,-7.0,0.0,0.0,0.0,0.0,0.0,0.0,0.0,0.0,0
-28.0,-11.0,-17.0,1.0,2.0,-4.0,-3.0,-15.0,0.0,0.0,0.0,0.0,0.0,0.0,0.0,0.0,0
55.0,28.0,25.0,32.0,15.0,1.0,2.0,-4.0,0.0,0.0,0.0,0.0,0.0,0.0,0.0,0.0,0
129.0,40.0,38.0,45.0,20.0,1.0,-4.0,7.0,0.0,0.0,0.0,0.0,0.0,0.0,0.0,0.0,0
72.0,23.0,36.0,43.0,17.0,-1.0,-10.0,16.0,0.0,0.0,0.0,0.0,0.0,0.0,0.0,0.0,0
-12.0,7.0,21.0,34.0,4.0,0.0,-8.0,3.0,0.0,0.0,0.0,0.0,0.0,0.0,0.0,0.0,0
-35.0,-9.0,1.0,15.0,-3.0,-7.0,-18.0,-8.0,0.0,0.0,0.0,0.0,0.0,0.0,0.0,0.0,0
-26.0,-23.0,-9.0,-2.0,-10.0,-7.0,-25.0,-2.0,0.0,0.0,0.0,0.0,0.0,0.0,0.0,0.0,0
-26.0,-21.0,-23.0,-17.0,-15.0,-3.0,-16.0,3.0,0.0,0.0,0.0,0.0,0.0,0.0,0.0,0.0,0
-17.0,-1.0,-31.0,-24.0,-11.0,-2.0,-8.0,-1.0,0.0,0.0,0.0,0.0,0.0,0.0,0.0,0.0,0
-1.0,20.0,-27.0,-27.0,2.0,4.0,0.0,9.0,0.0,0.0,0.0,0.0,0.0,0.0,0.0,0.0,0
3.0,8.0,-7.0,-22.0,4.0,7.0,8.0,7.0,0.0,0.0,0.0,0.0,0.0,0.0,0.0,0.0,0
-12.0,-17.0,1.0,-25.0,-3.0,-2.0,6.0,-7.0,0.0,0.0,0.0,0.0,0.0,0.0,0.0,0.0,0
-26.0,-39.0,0.0,-15.0,-11.0,-6.0,17.0,-10.0,0.0,0.0,0.0,0.0,0.0,0.0,0.0,0.0,0
-23.0,-27.0,3.0,-1.0,-11.0,5.0,19.0,-11.0,0.0,0.0,0.0,0.0,0.0,0.0,0.0,0.0,0
-8.0,-2.0,16.0,11.0,-1.0,3.0,20.0,-9.0,0.0,0.0,0.0,0.0,0.0,0.0,0.0,0.0,0
-5.0,20.0,8.0,7.0,3.0,-4.0,7.0,-5.0,0.0,0.0,0.0,0.0,0.0,0.0,0.0,0.0,0
1.0,15.0,7.0,4.0,-1.0,0.0,7.0,-5.0,0.0,0.0,0.0,0.0,0.0,0.0,0.0,0.0,0
8.0,18.0,13.0,10.0,1.0,-4.0,-6.0,-1.0,0.0,0.0,0.0,0.0,0.0,0.0,0.0,0.0,0
22.0,25.0,17.0,15.0,5.0,-10.0,-11.0,0.0,0.0,0.0,0.0,0.0,0.0,0.0,0.0,0.0,0
19.0,7.0,19.0,13.0,1.0,-14.0,-8.0,-10.0,0.0,0.0,0.0,0.0,0.0,0.0,0.0,0.0,0
-10.0,-11.0,3.0,-1.0,1.0,-7.0,-6.0,-11.0,0.0,0.0,0.0,0.0,0.0,0.0,0.0,0.0,0
-20.0,-16.0,-23.0,-15.0,-4.0,-2.0,-9.0,-1.0,0.0,0.0,0.0,0.0,0.0,0.0,0.0,0.0,0
-5.0,-31.0,-42.0,-15.0,-4.0,1.0,-16.0,5.0,0.0,0.0,0.0,0.0,0.0,0.0,0.0,0.0,0
3.0,-16.0,-25.0,1.0,-2.0,-2.0,-10.0,7.0,0.0,0.0,0.0,0.0,0.0,0.0,0.0,0.0,0
2.0,-16.0,-4.0,9.0,-5.0,-2.0,-10.0,2.0,0.0,0.0,0.0,0.0,0.0,0.0,0.0,0.0,0
2.0,-27.0,-5.0,-8.0,-11.0,-7.0,-18.0,-1.0,0.0,0.0,0.0,0.0,0.0,0.0,0.0,0.0,0
-4.0,-18.0,-11.0,-14.0,-7.0,-5.0,-23.0,6.0,0.0,0.0,0.0,0.0,0.0,0.0,0.0,0.0,0
1.0,1.0,1.0,-6.0,-3.0,1.0,-6.0,7.0,0.0,0.0,0.0,0.0,0.0,0.0,0.0,0.0,0
13.0,17.0,0.0,-8.0,-1.0,2.0,-2.0,2.0,0.0,0.0,0.0,0.0,0.0,0.0,0.0,0.0,0
15.0,18.0,-31.0,-19.0,-5.0,2.0,-5.0,-2.0,0.0,0.0,0.0,0.0,0.0,0.0,0.0,0.0,0
12.0,30.0,-12.0,-6.0,6.0,5.0,4.0,3.0,0.0,0.0,0.0,0.0,0.0,0.0,0.0,0.0,0
3.0,30.0,20.0,2.0,7.0,11.0,13.0,-5.0,0.0,0.0,0.0,0.0,0.0,0.0,0.0,0.0,0
-38.0,1.0,26.0,14.0,3.0,4.0,23.0,-13.0,0.0,0.0,0.0,0.0,0.0,0.0,0.0,0.0,0
-66.0,-32.0,12.0,-3.0,-6.0,-13.0,20.0,-15.0,0.0,0.0,0.0,0.0,0.0,0.0,0.0,0.0,0
-34.0,-40.0,4.0,-9.0,-7.0,-10.0,8.0,-12.0,0.0,0.0,0.0,0.0,0.0,0.0,0.0,0.0,0
24.0,-14.0,10.0,-5.0,-6.0,-4.0,4.0,-3.0,0.0,0.0,0.0,0.0,0.0,0.0,0.0,0.0,0
43.0,10.0,12.0,-6.0,-5.0,-1.0,2.0,1.0,0.0,0.0,0.0,0.0,0.0,0.0,0.0,0.0,0
8.0,1.0,-10.0,-10.0,-11.0,-6.0,-5.0,-8.0,0.0,0.0,0.0,0.0,0.0,0.0,0.0,0.0,0
4.0,11.0,-17.0,0.0,-7.0,-4.0,-7.0,-12.0,0.0,0.0,0.0,0.0,0.0,0.0,0.0,0.0,0
9.0,18.0,-5.0,21.0,3.0,-6.0,-9.0,-9.0,0.0,0.0,0.0,0.0,0.0,0.0,0.0,0.0,0
29.0,24.0,-2.0,17.0,2.0,-1.0,1.0,-1.0,0.0,0.0,0.0,0.0,0.0,0.0,0.0,0.0,0
-2.0,3.0,-4.0,2.0,7.0,-2.0,0.0,8.0,0.0,0.0,0.0,0.0,0.0,0.0,0.0,0.0,0
-59.0,-38.0,-5.0,-10.0,3.0,-3.0,-13.0,10.0,0.0,0.0,0.0,0.0,0.0,0.0,0.0,0.0,0
-51.0,-59.0,-7.0,-1.0,-5.0,-6.0,-15.0,0.0,0.0,0.0,0.0,0.0,0.0,0.0,0.0,0.0,0
-4.0,-28.0,5.0,3.0,-2.0,-7.0,-5.0,-5.0,0.0,0.0,0.0,0.0,0.0,0.0,0.0,0.0,0
-24.0,-30.0,-20.0,-19.0,-8.0,-5.0,-14.0,-6.0,0.0,0.0,0.0,0.0,0.0,0.0,0.0,0.0,0
-49.0,-51.0,-54.0,-42.0,-15.0,-4.0,-25.0,0.0,0.0,0.0,0.0,0.0,0.0,0.0,0.0,0.0,0
26.0,-8.0,-36.0,-29.0,-11.0,0.0,-18.0,4.0,0.0,0.0,0.0,0.0,0.0,0.0,0.0,0.0,0
121.0,68.0,3.0,5.0,7.0,2.0,-7.0,9.0,0.0,0.0,0.0,0.0,0.0,0.0,0.0,0.0,0
118.0,111.0,40.0,30.0,11.0,3.0,2.0,4.0,0.0,0.0,0.0,0.0,0.0,0.0,0.0,0.0,0
53.0,75.0,38.0,29.0,5.0,-2.0,5.0,6.0,0.0,0.0,0.0,0.0,0.0,0.0,0.0,0.0,0
-6.0,21.0,16.0,14.0,-2.0,-1.0,5.0,0.0,0.0,0.0,0.0,0.0,0.0,0.0,0.0,0.0,0
-66.0,-32.0,9.0,-1.0,-3.0,5.0,13.0,-14.0,0.0,0.0,0.0,0.0,0.0,0.0,0.0,0.0,0
-85.0,-68.0,2.0,-12.0,2.0,-2.0,22.0,-13.0,0.0,0.0,0.0,0.0,0.0,0.0,0.0,0.0,0
-85.0,-66.0,0.0,-8.0,-6.0,-2.0,15.0,-18.0,0.0,0.0,0.0,0.0,0.0,0.0,0.0,0.0,0
-79.0,-42.0,5.0,-3.0,-6.0,-3.0,1.0,-17.0,0.0,0.0,0.0,0.0,0.0,0.0,0.0,0.0,0
-30.0,-6.0,6.0,-8.0,-11.0,-6.0,0.0,-5.0,0.0,0.0,0.0,0.0,0.0,0.0,0.0,0.0,0
29.0,19.0,-9.0,-10.0,-12.0,-14.0,-1.0,2.0,0.0,0.0,0.0,0.0,0.0,0.0,0.0,0.0,0
40.0,7.0,-38.0,-22.0,-14.0,-7.0,-6.0,-5.0,0.0,0.0,0.0,0.0,0.0,0.0,0.0,0.0,0
33.0,2.0,-46.0,-17.0,-7.0,-3.0,-3.0,5.0,0.0,0.0,0.0,0.0,0.0,0.0,0.0,0.0,0
7.0,11.0,-18.0,-9.0,7.0,-1.0,2.0,5.0,0.0,0.0,0.0,0.0,0.0,0.0,0.0,0.0,0
14.0,19.0,4.0,2.0,6.0,3.0,0.0,-3.0,0.0,0.0,0.0,0.0,0.0,0.0,0.0,0.0,0
16.0,21.0,9.0,3.0,-2.0,-6.0,-14.0,3.0,0.0,0.0,0.0,0.0,0.0,0.0,0.0,0.0,0
12.0,3.0,16.0,13.0,-9.0,-7.0,-18.0,0.0,0.0,0.0,0.0,0.0,0.0,0.0,0.0,0.0,0
12.0,4.0,23.0,11.0,5.0,2.0,-17.0,-5.0,0.0,0.0,0.0,0.0,0.0,0.0,0.0,0.0,0
23.0,-13.0,-3.0,4.0,10.0,-1.0,-18.0,-4.0,0.0,0.0,0.0,0.0,0.0,0.0,0.0,0.0,0
17.0,-31.0,-14.0,4.0,3.0,-4.0,-19.0,1.0,0.0,0.0,0.0,0.0,0.0,0.0,0.0,0.0,0
-14.0,-32.0,-2.0,1.0,0.0,-1.0,-7.0,4.0,0.0,0.0,0.0,0.0,0.0,0.0,0.0,0.0,0
-26.0,-23.0,-7.0,-6.0,-10.0,2.0,6.0,10.0,0.0,0.0,0.0,0.0,0.0,0.0,0.0,0.0,0
-15.0,-5.0,-9.0,-6.0,-6.0,-1.0,-3.0,6.0,0.0,0.0,0.0,0.0,0.0,0.0,0.0,0.0,0
-10.0,23.0,1.0,-1.0,-1.0,3.0,2.0,-5.0,0.0,0.0,0.0,0.0,0.0,0.0,0.0,0.0,0
-11.0,34.0,2.0,3.0,-5.0,4.0,5.0,-12.0,0.0,0.0,0.0,0.0,0.0,0.0,0.0,0.0,0
-41.0,4.0,10.0,13.0,-8.0,2.0,19.0,-7.0,0.0,0.0,0.0,0.0,0.0,0.0,0.0,0.0,0
-75.0,-44.0,10.0,-2.0,2.0,-5.0,23.0,-1.0,0.0,0.0,0.0,0.0,0.0,0.0,0.0,0.0,0
-43.0,-37.0,-2.0,-12.0,5.0,-4.0,15.0,-8.0,0.0,0.0,0.0,0.0,0.0,0.0,0.0,0.0,0
50.0,17.0,-4.0,-10.0,1.0,-5.0,6.0,-8.0,0.0,0.0,0.0,0.0,0.0,0.0,0.0,0.0,0
84.0,49.0,-7.0,-7.0,-2.0,-1.0,-2.0,-11.0,0.0,0.0,0.0,0.0,0.0,0.0,0.0,0.0,0
44.0,57.0,0.0,-11.0,-2.0,-4.0,-7.0,-9.0,0.0,0.0,0.0,0.0,0.0,0.0,0.0,0.0,0
9.0,24.0,-14.0,-17.0,-6.0,-6.0,-11.0,-12.0,0.0,0.0,0.0,0.0,0.0,0.0,0.0,0.0,0
-16.0,-25.0,-18.0,-15.0,-8.0,-8.0,-7.0,-4.0,0.0,0.0,0.0,0.0,0.0,0.0,0.0,0.0,0
-41.0,-33.0,2.0,-10.0,-8.0,-8.0,-5.0,1.0,0.0,0.0,0.0,0.0,0.0,0.0,0.0,0.0,0
-51.0,-22.0,12.0,-1.0,-11.0,-12.0,-7.0,-6.0,0.0,0.0,0.0,0.0,0.0,0.0,0.0,0.0,0
-46.0,-43.0,-11.0,-1.0,-9.0,-1.0,-16.0,-4.0,0.0,0.0,0.0,0.0,0.0,0.0,0.0,0.0,0
-6.0,-49.0,-11.0,10.0,9.0,3.0,-4.0,8.0,0.0,0.0,0.0,0.0,0.0,0.0,0.0,0.0,0
55.0,-27.0,-3.0,11.0,11.0,3.0,3.0,15.0,0.0,0.0,0.0,0.0,0.0,0.0,0.0,0.0,0
78.0,0.0,-6.0,16.0,6.0,-2.0,-5.0,16.0,0.0,0.0,0.0,0.0,0.0,0.0,0.0,0.0,0
37.0,23.0,5.0,28.0,5.0,-1.0,-12.0,9.0,0.0,0.0,0.0,0.0,0.0,0.0,0.0,0.0,0
7.0,35.0,4.0,17.0,7.0,-1.0,-14.0,1.0,0.0,0.0,0.0,0.0,0.0,0.0,0.0,0.0,0
-14.0,26.0,7.0,-5.0,4.0,-5.0,-16.0,-5.0,0.0,0.0,0.0,0.0,0.0,0.0,0.0,0.0,0
-39.0,8.0,-10.0,-19.0,-11.0,-6.0,-14.0,-4.0,0.0,0.0,0.0,0.0,0.0,0.0,0.0,0.0,0
-55.0,-17.0,-5.0,-19.0,-12.0,-5.0,3.0,-10.0,0.0,0.0,0.0,0.0,0.0,0.0,0.0,0.0,0
-34.0,-18.0,0.0,-18.0,-15.0,2.0,6.0,-9.0,0.0,0.0,0.0,0.0,0.0,0.0,0.0,0.0,0
-10.0,4.0,6.0,-17.0,-8.0,4.0,21.0,-11.0,0.0,0.0,0.0,0.0,0.0,0.0,0.0,0.0,0
-5.0,19.0,12.0,-10.0,0.0,8.0,21.0,-14.0,0.0,0.0,0.0,0.0,0.0,0.0,0.0,0.0,0
10.0,21.0,4.0,1.0,3.0,-4.0,11.0,-5.0,0.0,0.0,0.0,0.0,0.0,0.0,0.0,0.0,0
10.0,15.0,-9.0,2.0,6.0,-4.0,5.0,-1.0,0.0,0.0,0.0,0.0,0.0,0.0,0.0,0.0,0
2.0,-3.0,-12.0,0.0,-4.0,-6.0,1.0,-9.0,0.0,0.0,0.0,0.0,0.0,0.0,0.0,0.0,0
16.0,-13.0,-19.0,-6.0,-7.0,-7.0,-7.0,-5.0,0.0,0.0,0.0,0.0,0.0,0.0,0.0,0.0,0
14.0,-23.0,-13.0,-2.0,-12.0,-5.0,-13.0,-9.0,0.0,0.0,0.0,0.0,0.0,0.0,0.0,0.0,0
-12.0,-41.0,0.0,1.0,-7.0,-9.0,-10.0,-9.0,0.0,0.0,0.0,0.0,0.0,0.0,0.0,0.0,0
-11.0,-24.0,26.0,10.0,0.0,-5.0,2.0,-3.0,0.0,0.0,0.0,0.0,0.0,0.0,0.0,0.0,0
-21.0,10.0,38.0,12.0,9.0,-2.0,4.0,5.0,0.0,0.0,0.0,0.0,0.0,0.0,0.0,0.0,0
-6.0,31.0,22.0,0.0,5.0,1.0,-9.0,8.0,0.0,0.0,0.0,0.0,0.0,0.0,0.0,0.0,0
8.0,34.0,2.0,0.0,1.0,1.0,-6.0,8.0,0.0,0.0,0.0,0.0,0.0,0.0,0.0,0.0,0
0.0,-1.0,-9.0,6.0,7.0,-2.0,-6.0,-2.0,0.0,0.0,0.0,0.0,0.0,0.0,0.0,0.0,0
-5.0,-44.0,-36.0,-11.0,-8.0,-7.0,-26.0,-3.0,0.0,0.0,0.0,0.0,0.0,0.0,0.0,0.0,0
-13.0,-57.0,-84.0,-21.0,-19.0,-18.0,-36.0,-1.0,0.0,0.0,0.0,0.0,0.0,0.0,0.0,0.0,0
11.0,-25.0,-73.0,-18.0,-4.0,-10.0,-23.0,-3.0,0.0,0.0,0.0,0.0,0.0,0.0,0.0,0.0,0
48.0,10.0,-30.0,-13.0,-4.0,7.0,-4.0,3.0,0.0,0.0,0.0,0.0,0.0,0.0,0.0,0.0,0
25.0,17.0,8.0,0.0,-2.0,8.0,8.0,9.0,0.0,0.0,0.0,0.0,0.0,0.0,0.0,0.0,0
-19.0,7.0,40.0,8.0,5.0,8.0,10.0,1.0,0.0,0.0,0.0,0.0,0.0,0.0,0.0,0.0,0
-23.0,8.0,44.0,2.0,-6.0,8.0,10.0,-8.0,0.0,0.0,0.0,0.0,0.0,0.0,0.0,0.0,0
-25.0,15.0,23.0,-13.0,-10.0,9.0,15.0,-10.0,0.0,0.0,0.0,0.0,0.0,0.0,0.0,0.0,0
-32.0,22.0,21.0,-5.0,-8.0,-1.0,19.0,-8.0,0.0,0.0,0.0,0.0,0.0,0.0,0.0,0.0,0
-31.0,19.0,24.0,-5.0,-4.0,-6.0,7.0,-7.0,0.0,0.0,0.0,0.0,0.0,0.0,0.0,0.0,0
-23.0,-9.0,4.0,-1.0,0.0,-10.0,2.0,-11.0,0.0,0.0,0.0,0.0,0.0,0.0,0.0,0.0,0
11.0,-22.0,0.0,-1.0,3.0,-17.0,-4.0,-7.0,0.0,0.0,0.0,0.0,0.0,0.0,0.0,0.0,0
23.0,-14.0,8.0,19.0,8.0,-15.0,-3.0,-6.0,0.0,0.0,0.0,0.0,0.0,0.0,0.0,0.0,0
19.0,-9.0,-10.0,12.0,1.0,2.0,3.0,-2.0,0.0,0.0,0.0,0.0,0.0,0.0,0.0,0.0,0
11.0,-18.0,-33.0,0.0,3.0,8.0,4.0,5.0,0.0,0.0,0.0,0.0,0.0,0.0,0.0,0.0,0
-9.0,-11.0,-22.0,-8.0,4.0,4.0,4.0,7.0,0.0,0.0,0.0,0.0,0.0,0.0,0.0,0.0,0
-33.0,-3.0,-8.0,-8.0,-4.0,-4.0,-3.0,2.0,0.0,0.0,0.0,0.0,0.0,0.0,0.0,0.0,0
-6.0,15.0,-5.0,-13.0,-15.0,-4.0,-24.0,-5.0,0.0,0.0,0.0,0.0,0.0,0.0,0.0,0.0,0
29.0,31.0,-1.0,-4.0,-9.0,-5.0,-28.0,-9.0,0.0,0.0,0.0,0.0,0.0,0.0,0.0,0.0,0
27.0,22.0,6.0,2.0,-4.0,-4.0,-13.0,-10.0,0.0,0.0,0.0,0.0,0.0,0.0,0.0,0.0,0
37.0,16.0,-11.0,-7.0,-3.0,-6.0,-13.0,1.0,0.0,0.0,0.0,0.0,0.0,0.0,0.0,0.0,0
43.0,13.0,-12.0,-10.0,-7.0,-11.0,-20.0,5.0,0.0,0.0,0.0,0.0,0.0,0.0,0.0,0.0,0
-6.0,-23.0,-1.0,8.0,-2.0,-4.0,-5.0,6.0,0.0,0.0,0.0,0.0,0.0,0.0,0.0,0.0,0
-33.0,-53.0,-1.0,13.0,1.0,0.0,-5.0,10.0,0.0,0.0,0.0,0.0,0.0,0.0,0.0,0.0,0
-69.0,-76.0,-16.0,-9.0,-4.0,0.0,2.0,7.0,0.0,0.0,0.0,0.0,0.0,0.0,0.0,0.0,0
-72.0,-63.0,-21.0,-18.0,-6.0,8.0,8.0,0.0,0.0,0.0,0.0,0.0,0.0,0.0,0.0,0.0,0
-35.0,-12.0,-11.0,-11.0,-3.0,3.0,16.0,2.0,0.0,0.0,0.0,0.0,0.0,0.0,0.0,0.0,0
1.0,31.0,22.0,-6.0,0.0,-2.0,20.0,-8.0,0.0,0.0,0.0,0.0,0.0,0.0,0.0,0.0,0
41.0,61.0,29.0,-5.0,-7.0,-4.0,13.0,-18.0,0.0,0.0,0.0,0.0,0.0,0.0,0.0,0.0,0
39.0,60.0,10.0,3.0,-8.0,-5.0,6.0,-18.0,0.0,0.0,0.0,0.0,0.0,0.0,0.0,0.0,0
19.0,57.0,11.0,4.0,5.0,-5.0,7.0,-13.0,0.0,0.0,0.0,0.0,0.0,0.0,0.0,0.0,0
16.0,55.0,15.0,16.0,8.0,-2.0,6.0,-2.0,0.0,0.0,0.0,0.0,0.0,0.0,0.0,0.0,0
1.0,15.0,9.0,13.0,10.0,0.0,-3.0,-3.0,0.0,0.0,0.0,0.0,0.0,0.0,0.0,0.0,0
-9.0,-44.0,-6.0,-4.0,-4.0,-7.0,-12.0,-7.0,0.0,0.0,0.0,0.0,0.0,0.0,0.0,0.0,0
-22.0,-87.0,-27.0,-14.0,-15.0,-5.0,-11.0,-5.0,0.0,0.0,0.0,0.0,0.0,0.0,0.0,0.0,0
-37.0,-79.0,-34.0,-21.0,-11.0,5.0,-5.0,-1.0,0.0,0.0,0.0,0.0,0.0,0.0,0.0,0.0,0
-24.0,-40.0,-19.0,-19.0,-13.0,-6.0,3.0,-9.0,0.0,0.0,0.0,0.0,0.0,0.0,0.0,0.0,0
-5.0,-6.0,-1.0,-3.0,-3.0,-12.0,-9.0,2.0,0.0,0.0,0.0,0.0,0.0,0.0,0.0,0.0,0
6.0,21.0,8.0,11.0,5.0,-12.0,-17.0,1.0,0.0,0.0,0.0,0.0,0.0,0.0,0.0,0.0,0
1.0,39.0,-3.0,0.0,7.0,-10.0,-16.0,-2.0,0.0,0.0,0.0,0.0,0.0,0.0,0.0,0.0,0
-13.0,37.0,-23.0,3.0,0.0,1.0,-15.0,3.0,0.0,0.0,0.0,0.0,0.0,0.0,0.0,0.0,0
23.0,18.0,-12.0,13.0,8.0,7.0,-12.0,12.0,0.0,0.0,0.0,0.0,0.0,0.0,0.0,0.0,0
50.0,38.0,16.0,15.0,9.0,10.0,-9.0,14.0,0.0,0.0,0.0,0.0,0.0,0.0,0.0,0.0,0
40.0,25.0,32.0,11.0,0.0,2.0,-4.0,2.0,0.0,0.0,0.0,0.0,0.0,0.0,0.0,0.0,0
23.0,-20.0,17.0,2.0,-7.0,-7.0,-1.0,-1.0,0.0,0.0,0.0,0.0,0.0,0.0,0.0,0.0,0
-10.0,-47.0,-10.0,-18.0,-14.0,3.0,6.0,-5.0,0.0,0.0,0.0,0.0,0.0,0.0,0.0,0.0,0
-28.0,-44.0,-23.0,-29.0,-19.0,1.0,10.0,-5.0,0.0,0.0,0.0,0.0,0.0,0.0,0.0,0.0,0
-43.0,-34.0,-19.0,-28.0,-18.0,-2.0,10.0,-11.0,0.0,0.0,0.0,0.0,0.0,0.0,0.0,0.0,0
-46.0,-27.0,-20.0,-24.0,-13.0,-6.0,10.0,-11.0,0.0,0.0,0.0,0.0,0.0,0.0,0.0,0.0,0
-41.0,-4.0,-12.0,-11.0,-1.0,-12.0,3.0,-10.0,0.0,0.0,0.0,0.0,0.0,0.0,0.0,0.0,0
-23.0,24.0,15.0,8.0,7.0,-11.0,-2.0,-8.0,0.0,0.0,0.0,0.0,0.0,0.0,0.0,0.0,0
11.0,42.0,17.0,12.0,8.0,3.0,1.0,-2.0,0.0,0.0,0.0,0.0,0.0,0.0,0.0,0.0,0
48.0,44.0,25.0,13.0,9.0,6.0,4.0,-4.0,0.0,0.0,0.0,0.0,0.0,0.0,0.0,0.0,0
3.0,-5.0,15.0,2.0,3.0,6.0,4.0,-2.0,0.0,0.0,0.0,0.0,0.0,0.0,0.0,0.0,0
-19.0,-14.0,0.0,3.0,-1.0,-4.0,-4.0,-2.0,0.0,0.0,0.0,0.0,0.0,0.0,0.0,0.0,0
3.0,-6.0,-4.0,9.0,3.0,-5.0,1.0,-1.0,0.0,0.0,0.0,0.0,0.0,0.0,0.0,0.0,0
7.0,-23.0,-26.0,-2.0,5.0,-8.0,-1.0,-1.0,0.0,0.0,0.0,0.0,0.0,0.0,0.0,0.0,0
9.0,-17.0,-19.0,1.0,3.0,-7.0,-11.0,0.0,0.0,0.0,0.0,0.0,0.0,0.0,0.0,0.0,0
18.0,19.0,-3.0,-2.0,-8.0,-1.0,-22.0,5.0,0.0,0.0,0.0,0.0,0.0,0.0,0.0,0.0,0
14.0,29.0,6.0,-5.0,-10.0,-6.0,-17.0,0.0,0.0,0.0,0.0,0.0,0.0,0.0,0.0,0.0,0
1.0,-11.0,-8.0,-14.0,-16.0,-9.0,-22.0,-4.0,0.0,0.0,0.0,0.0,0.0,0.0,0.0,0.0,0
-13.0,-47.0,-21.0,-8.0,-9.0,-9.0,-16.0,4.0,0.0,0.0,0.0,0.0,0.0,0.0,0.0,0.0,0
-20.0,-50.0,-25.0,-5.0,-1.0,-6.0,-2.0,7.0,0.0,0.0,0.0,0.0,0.0,0.0,0.0,0.0,0
-24.0,-35.0,-15.0,4.0,5.0,6.0,-7.0,6.0,0.0,0.0,0.0,0.0,0.0,0.0,0.0,0.0,0
-9.0,0.0,1.0,6.0,9.0,7.0,-2.0,2.0,0.0,0.0,0.0,0.0,0.0,0.0,0.0,0.0,0
5.0,19.0,18.0,4.0,4.0,1.0,6.0,-13.0,0.0,0.0,0.0,0.0,0.0,0.0,0.0,0.0,0
17.0,20.0,7.0,-1.0,-4.0,4.0,11.0,-13.0,0.0,0.0,0.0,0.0,0.0,0.0,0.0,0.0,0
9.0,24.0,8.0,-6.0,-7.0,5.0,18.0,-6.0,0.0,0.0,0.0,0.0,0.0,0.0,0.0,0.0,0
10.0,35.0,4.0,-15.0,-14.0,4.0,19.0,-4.0,0.0,0.0,0.0,0.0,0.0,0.0,0.0,0.0,0
16.0,31.0,-1.0,-27.0,-15.0,-8.0,7.0,0.0,0.0,0.0,0.0,0.0,0.0,0.0,0.0,0.0,0
-7.0,15.0,5.0,-12.0,-1.0,-6.0,8.0,-7.0,0.0,0.0,0.0,0.0,0.0,0.0,0.0,0.0,0
-16.0,8.0,22.0,12.0,14.0,-3.0,6.0,-7.0,0.0,0.0,0.0,0.0,0.0,0.0,0.0,0.0,0
-36.0,-15.0,31.0,20.0,11.0,-8.0,5.0,-1.0,0.0,0.0,0.0,0.0,0.0,0.0,0.0,0.0,0
-48.0,-45.0,4.0,19.0,4.0,-4.0,0.0,-4.0,0.0,0.0,0.0,0.0,0.0,0.0,0.0,0.0,0
-37.0,-50.0,-25.0,-4.0,-10.0,-3.0,-11.0,-2.0,0.0,0.0,0.0,0.0,0.0,0.0,0.0,0.0,0
-5.0,-17.0,-20.0,-12.0,-13.0,-6.0,-9.0,-7.0,0.0,0.0,0.0,0.0,0.0,0.0,0.0,0.0,0
4.0,0.0,-23.0,-23.0,-8.0,-7.0,-4.0,-5.0,0.0,0.0,0.0,0.0,0.0,0.0,0.0,0.0,0
25.0,-12.0,-30.0,-19.0,-7.0,-7.0,-16.0,5.0,0.0,0.0,0.0,0.0,0.0,0.0,0.0,0.0,0
42.0,0.0,-17.0,-5.0,-1.0,-2.0,-16.0,0.0,0.0,0.0,0.0,0.0,0.0,0.0,0.0,0.0,0
34.0,17.0,-8.0,3.0,0.0,4.0,-13.0,-7.0,0.0,0.0,0.0,0.0,0.0,0.0,0.0,0.0,0
30.0,17.0,6.0,8.0,0.0,-8.0,-21.0,-2.0,0.0,0.0,0.0,0.0,0.0,0.0,0.0,0.0,0
23.0,25.0,25.0,18.0,6.0,0.0,-17.0,3.0,0.0,0.0,0.0,0.0,0.0,0.0,0.0,0.0,0
8.0,18.0,-3.0,0.0,-2.0,2.0,-3.0,5.0,0.0,0.0,0.0,0.0,0.0,0.0,0.0,0.0,0
0.0,4.0,-28.0,-17.0,-6.0,-6.0,-9.0,4.0,0.0,0.0,0.0,0.0,0.0,0.0,0.0,0.0,0
-12.0,-14.0,-25.0,-19.0,-3.0,0.0,-1.0,5.0,0.0,0.0,0.0,0.0,0.0,0.0,0.0,0.0,0
-31.0,-26.0,-8.0,-6.0,0.0,5.0,12.0,-2.0,0.0,0.0,0.0,0.0,0.0,0.0,0.0,0.0,0
-48.0,-30.0,5.0,1.0,0.0,1.0,16.0,0.0,0.0,0.0,0.0,0.0,0.0,0.0,0.0,0.0,0
-96.0,-47.0,10.0,-1.0,-1.0,8.0,17.0,-13.0,0.0,0.0,0.0,0.0,0.0,0.0,0.0,0.0,0
-99.0,-36.0,14.0,-7.0,2.0,-2.0,17.0,-11.0,0.0,0.0,0.0,0.0,0.0,0.0,0.0,0.0,0
-39.0,-1.0,19.0,-2.0,-5.0,-11.0,6.0,-15.0,0.0,0.0,0.0,0.0,0.0,0.0,0.0,0.0,0
96.0,49.0,29.0,2.0,-11.0,-5.0,3.0,-5.0,0.0,0.0,0.0,0.0,0.0,0.0,0.0,0.0,0
126.0,77.0,37.0,19.0,2.0,5.0,3.0,-4.0,0.0,0.0,0.0,0.0,0.0,0.0,0.0,0.0,0
49.0,58.0,17.0,17.0,1.0,-1.0,1.0,-10.0,0.0,0.0,0.0,0.0,0.0,0.0,0.0,0.0,0
7.0,31.0,-13.0,0.0,-1.0,-7.0,-11.0,-5.0,0.0,0.0,0.0,0.0,0.0,0.0,0.0,0.0,0
-8.0,4.0,-21.0,-12.0,-5.0,-13.0,-9.0,-6.0,0.0,0.0,0.0,0.0,0.0,0.0,0.0,0.0,0
-40.0,-60.0,-24.0,-18.0,-3.0,-5.0,1.0,1.0,0.0,0.0,0.0,0.0,0.0,0.0,0.0,0.0,0
-70.0,-100.0,-55.0,-24.0,-9.0,6.0,2.0,2.0,0.0,0.0,0.0,0.0,0.0,0.0,0.0,0.0,0
-6.0,-62.0,-61.0,-19.0,3.0,5.0,-14.0,0.0,0.0,0.0,0.0,0.0,0.0,0.0,0.0,0.0,0
16.0,-24.0,-41.0,-17.0,-1.0,-5.0,-18.0,-4.0,0.0,0.0,0.0,0.0,0.0,0.0,0.0,0.0,0
0.0,4.0,-5.0,-2.0,2.0,-8.0,-5.0,4.0,0.0,0.0,0.0,0.0,0.0,0.0,0.0,0.0,0
1.0,29.0,23.0,9.0,-6.0,-8.0,-13.0,6.0,0.0,0.0,0.0,0.0,0.0,0.0,0.0,0.0,0
11.0,41.0,36.0,15.0,-4.0,-6.0,-23.0,-3.0,0.0,0.0,0.0,0.0,0.0,0.0,0.0,0.0,0
7.0,31.0,32.0,22.0,1.0,2.0,-13.0,5.0,0.0,0.0,0.0,0.0,0.0,0.0,0.0,0.0,0
17.0,37.0,23.0,9.0,0.0,-1.0,-11.0,5.0,0.0,0.0,0.0,0.0,0.0,0.0,0.0,0.0,0
17.0,27.0,2.0,4.0,-1.0,4.0,1.0,8.0,0.0,0.0,0.0,0.0,0.0,0.0,0.0,0.0,0
-5.0,-10.0,-11.0,-8.0,-9.0,6.0,5.0,0.0,0.0,0.0,0.0,0.0,0.0,0.0,0.0,0.0,0
-16.0,-27.0,-10.0,-13.0,-1.0,1.0,8.0,-10.0,0.0,0.0,0.0,0.0,0.0,0.0,0.0,0.0,0
-39.0,-40.0,7.0,-6.0,4.0,-5.0,12.0,-17.0,0.0,0.0,0.0,0.0,0.0,0.0,0.0,0.0,0
-43.0,-53.0,-7.0,-15.0,2.0,4.0,22.0,-15.0,0.0,0.0,0.0,0.0,0.0,0.0,0.0,0.0,0
-34.0,-42.0,-20.0,-20.0,-7.0,-2.0,7.0,-10.0,0.0,0.0,0.0,0.0,0.0,0.0,0.0,0.0,0
-35.0,-19.0,-22.0,-11.0,-10.0,-4.0,4.0,-9.0,0.0,0.0,0.0,0.0,0.0,0.0,0.0,0.0,0
-13.0,20.0,-16.0,-2.0,-7.0,-3.0,9.0,-4.0,0.0,0.0,0.0,0.0,0.0,0.0,0.0,0.0,0
45.0,64.0,2.0,-4.0,-7.0,-5.0,7.0,3.0,0.0,0.0,0.0,0.0,0.0,0.0,0.0,0.0,0
79.0,72.0,15.0,3.0,4.0,-2.0,6.0,3.0,0.0,0.0,0.0,0.0,0.0,0.0,0.0,0.0,0
37.0,36.0,20.0,16.0,13.0,2.0,-4.0,9.0,0.0,0.0,0.0,0.0,0.0,0.0,0.0,0.0,0
4.0,19.0,35.0,14.0,6.0,-5.0,-8.0,3.0,0.0,0.0,0.0,0.0,0.0,0.0,0.0,0.0,0
25.0,6.0,37.0,13.0,3.0,2.0,-9.0,-3.0,0.0,0.0,0.0,0.0,0.0,0.0,0.0,0.0,0
-12.0,-44.0,29.0,9.0,6.0,0.0,-20.0,-6.0,0.0,0.0,0.0,0.0,0.0,0.0,0.0,0.0,0
-49.0,-81.0,-7.0,1.0,-5.0,-12.0,-18.0,-1.0,0.0,0.0,0.0,0.0,0.0,0.0,0.0,0.0,0
-60.0,-90.0,-48.0,-16.0,-17.0,-11.0,-16.0,-3.0,0.0,0.0,0.0,0.0,0.0,0.0,0.0,0.0,0
-42.0,-55.0,-70.0,-19.0,-18.0,-10.0,-15.0,2.0,0.0,0.0,0.0,0.0,0.0,0.0,0.0,0.0,0
-26.0,-32.0,-77.0,-22.0,-11.0,-9.0,-14.0,0.0,0.0,0.0,0.0,0.0,0.0,0.0,0.0,0.0,0
-12.0,1.0,-48.0,-15.0,-5.0,-9.0,-12.0,-1.0,0.0,0.0,0.0,0.0,0.0,0.0,0.0,0.0,0
30.0,59.0,1.0,12.0,2.0,0.0,-10.0,-1.0,0.0,0.0,0.0,0.0,0.0,0.0,0.0,0.0,0
67.0,75.0,27.0,5.0,0.0,10.0,-5.0,4.0,0.0,0.0,0.0,0.0,0.0,0.0,0.0,0.0,0
57.0,80.0,31.0,-14.0,-1.0,9.0,6.0,7.0,0.0,0.0,0.0,0.0,0.0,0.0,0.0,0.0,0
28.0,36.0,21.0,-16.0,-4.0,10.0,12.0,-1.0,0.0,0.0,0.0,0.0,0.0,0.0,0.0,0.0,0
-3.0,5.0,20.0,-13.0,-4.0,2.0,25.0,-7.0,0.0,0.0,0.0,0.0,0.0,0.0,0.0,0.0,0
-2.0,0.0,29.0,-13.0,-1.0,-4.0,21.0,-14.0,0.0,0.0,0.0,0.0,0.0,0.0,0.0,0.0,0
-19.0,-30.0,29.0,-3.0,2.0,-4.0,8.0,-8.0,0.0,0.0,0.0,0.0,0.0,0.0,0.0,0.0,0
-58.0,-73.0,13.0,6.0,-2.0,-14.0,-1.0,-8.0,0.0,0.0,0.0,0.0,0.0,0.0,0.0,0.0,0
-72.0,-97.0,-34.0,9.0,-2.0,-10.0,-2.0,-5.0,0.0,0.0,0.0,0.0,0.0,0.0,0.0,0.0,0
-64.0,-66.0,-41.0,9.0,5.0,-6.0,-2.0,-7.0,0.0,0.0,0.0,0.0,0.0,0.0,0.0,0.0,0
-32.0,-7.0,-22.0,11.0,5.0,3.0,-1.0,1.0,0.0,0.0,0.0,0.0,0.0,0.0,0.0,0.0,0
-3.0,22.0,-10.0,10.0,3.0,-2.0,-8.0,-6.0,0.0,0.0,0.0,0.0,0.0,0.0,0.0,0.0,0
4.0,59.0,23.0,10.0,0.0,-3.0,-9.0,-7.0,0.0,0.0,0.0,0.0,0.0,0.0,0.0,0.0,0
52.0,76.0,34.0,7.0,-4.0,1.0,-5.0,3.0,0.0,0.0,0.0,0.0,0.0,0.0,0.0,0.0,0
103.0,56.0,-1.0,-13.0,-16.0,-6.0,-15.0,2.0,0.0,0.0,0.0,0.0,0.0,0.0,0.0,0.0,0
65.0,15.0,-6.0,-21.0,-10.0,-3.0,-13.0,1.0,0.0,0.0,0.0,0.0,0.0,0.0,0.0,0.0,0
14.0,-9.0,-12.0,-15.0,0.0,-4.0,-5.0,6.0,0.0,0.0,0.0,0.0,0.0,0.0,0.0,0.0,0
13.0,-33.0,-22.0,-14.0,-4.0,-7.0,-9.0,10.0,0.0,0.0,0.0,0.0,0.0,0.0,0.0,0.0,0
4.0,-41.0,-24.0,3.0,-5.0,-4.0,-18.0,9.0,0.0,0.0,0.0,0.0,0.0,0.0,0.0,0.0,0
-32.0,-28.0,-7.0,16.0,-5.0,-3.0,-13.0,1.0,0.0,0.0,0.0,0.0,0.0,0.0,0.0,0.0,0
-51.0,-18.0,-2.0,6.0,-5.0,-5.0,-11.0,-6.0,0.0,0.0,0.0,0.0,0.0,0.0,0.0,0.0,0
-54.0,-14.0,-14.0,-11.0,3.0,1.0,-3.0,-6.0,0.0,0.0,0.0,0.0,0.0,0.0,0.0,0.0,0
-46.0,-13.0,-5.0,-14.0,0.0,5.0,10.0,-3.0,0.0,0.0,0.0,0.0,0.0,0.0,0.0,0.0,0
-34.0,-10.0,7.0,0.0,4.0,3.0,13.0,-2.0,0.0,0.0,0.0,0.0,0.0,0.0,0.0,0.0,0
-9.0,-3.0,9.0,-6.0,3.0,7.0,14.0,-8.0,0.0,0.0,0.0,0.0,0.0,0.0,0.0,0.0,0
16.0,18.0,4.0,-9.0,-2.0,-3.0,15.0,-15.0,0.0,0.0,0.0,0.0,0.0,0.0,0.0,0.0,0
31.0,26.0,-1.0,-13.0,-4.0,-11.0,9.0,-8.0,0.0,0.0,0.0,0.0,0.0,0.0,0.0,0.0,0
16.0,7.0,0.0,-15.0,-8.0,-7.0,4.0,-6.0,0.0,0.0,0.0,0.0,0.0,0.0,0.0,0.0,0
-6.0,7.0,23.0,13.0,-4.0,-3.0,1.0,-3.0,0.0,0.0,0.0,0.0,0.0,0.0,0.0,0.0,0
-7.0,15.0,23.0,17.0,-4.0,-5.0,-2.0,2.0,0.0,0.0,0.0,0.0,0.0,0.0,0.0,0.0,0
-3.0,7.0,-23.0,-22.0,-19.0,-12.0,-10.0,-1.0,0.0,0.0,0.0,0.0,0.0,0.0,0.0,0.0,0
-5.0,-7.0,-32.0,-26.0,-20.0,-10.0,-11.0,-4.0,0.0,0.0,0.0,0.0,0.0,0.0,0.0,0.0,0
-9.0,-9.0,-10.0,-1.0,0.0,-3.0,-6.0,-1.0,0.0,0.0,0.0,0.0,0.0,0.0,0.0,0.0,0
9.0,4.0,15.0,18.0,13.0,8.0,1.0,2.0,0.0,0.0,0.0,0.0,0.0,0.0,0.0,0.0,0
35.0,11.0,21.0,28.0,14.0,0.0,-10.0,0.0,0.0,0.0,0.0,0.0,0.0,0.0,0.0,0.0,0
32.0,-12.0,8.0,14.0,10.0,-4.0,-10.0,-7.0,0.0,0.0,0.0,0.0,0.0,0.0,0.0,0.0,0
13.0,-30.0,12.0,6.0,2.0,-1.0,-6.0,-3.0,0.0,0.0,0.0,0.0,0.0,0.0,0.0,0.0,0
-5.0,-44.0,-12.0,-2.0,-12.0,-2.0,-15.0,4.0,0.0,0.0,0.0,0.0,0.0,0.0,0.0,0.0,0
-18.0,-38.0,-49.0,-28.0,-20.0,-8.0,-28.0,2.0,0.0,0.0,0.0,0.0,0.0,0.0,0.0,0.0,0
-30.0,-17.0,-67.0,-44.0,-20.0,-10.0,-19.0,1.0,0.0,0.0,0.0,0.0,0.0,0.0,0.0,0.0,0
-34.0,-12.0,-46.0,-34.0,-9.0,-4.0,-11.0,6.0,0.0,0.0,0.0,0.0,0.0,0.0,0.0,0.0,0
-21.0,6.0,-3.0,-2.0,5.0,-1.0,4.0,8.0,0.0,0.0,0.0,0.0,0.0,0.0,0.0,0.0,0
-18.0,37.0,30.0,9.0,8.0,4.0,11.0,2.0,0.0,0.0,0.0,0.0,0.0,0.0,0.0,0.0,0
-8.0,56.0,45.0,17.0,4.0,8.0,8.0,-6.0,0.0,0.0,0.0,0.0,0.0,0.0,0.0,0.0,0
4.0,40.0,56.0,31.0,7.0,5.0,22.0,-11.0,0.0,0.0,0.0,0.0,0.0,0.0,0.0,0.0,0
16.0,2.0,29.0,26.0,8.0,-2.0,24.0,-13.0,0.0,0.0,0.0,0.0,0.0,0.0,0.0,0.0,0
26.0,-15.0,4.0,11.0,7.0,1.0,13.0,-12.0,0.0,0.0,0.0,0.0,0.0,0.0,0.0,0.0,0
19.0,-21.0,-19.0,-8.0,0.0,-3.0,4.0,-4.0,0.0,0.0,0.0,0.0,0.0,0.0,0.0,0.0,0
0.0,-13.0,-12.0,-11.0,-7.0,-4.0,-2.0,-5.0,0.0,0.0,0.0,0.0,0.0,0.0,0.0,0.0,0
-22.0,0.0,-7.0,-13.0,-12.0,-7.0,-4.0,0.0,0.0,0.0,0.0,0.0,0.0,0.0,0.0,0.0,0
-24.0,4.0,5.0,-17.0,-12.0,-7.0,-10.0,-6.0,0.0,0.0,0.0,0.0,0.0,0.0,0.0,0.0,0
-4.0,-1.0,-5.0,-19.0,-9.0,-10.0,-12.0,-8.0,0.0,0.0,0.0,0.0,0.0,0.0,0.0,0.0,0
-4.0,-18.0,-21.0,-22.0,-6.0,-10.0,-7.0,-3.0,0.0,0.0,0.0,0.0,0.0,0.0,0.0,0.0,0
-19.0,-23.0,-16.0,-16.0,-7.0,-8.0,-5.0,-5.0,0.0,0.0,0.0,0.0,0.0,0.0,0.0,0.0,0
3.0,-20.0,-17.0,-8.0,-5.0,-1.0,-12.0,-1.0,0.0,0.0,0.0,0.0,0.0,0.0,0.0,0.0,0
14.0,-6.0,-20.0,6.0,3.0,10.0,-13.0,7.0,0.0,0.0,0.0,0.0,0.0,0.0,0.0,0.0,0
9.0,7.0,-8.0,16.0,0.0,2.0,-9.0,4.0,0.0,0.0,0.0,0.0,0.0,0.0,0.0,0.0,0
27.0,23.0,-10.0,13.0,-1.0,-8.0,-16.0,3.0,0.0,0.0,0.0,0.0,0.0,0.0,0.0,0.0,0
18.0,11.0,-3.0,10.0,-2.0,-4.0,-12.0,15.0,0.0,0.0,0.0,0.0,0.0,0.0,0.0,0.0,0
-13.0,-14.0,7.0,9.0,0.0,6.0,-6.0,13.0,0.0,0.0,0.0,0.0,0.0,0.0,0.0,0.0,0
-17.0,-19.0,6.0,2.0,5.0,2.0,-3.0,0.0,0.0,0.0,0.0,0.0,0.0,0.0,0.0,0.0,0
-24.0,-21.0,4.0,2.0,1.0,-2.0,-1.0,1.0,0.0,0.0,0.0,0.0,0.0,0.0,0.0,0.0,0
-15.0,-16.0,15.0,-8.0,-3.0,-1.0,0.0,-5.0,0.0,0.0,0.0,0.0,0.0,0.0,0.0,0.0,0
-14.0,-18.0,-4.0,-25.0,-16.0,-3.0,-1.0,-15.0,0.0,0.0,0.0,0.0,0.0,0.0,0.0,0.0,0
-15.0,-1.0,-17.0,-31.0,-17.0,-6.0,11.0,-22.0,0.0,0.0,0.0,0.0,0.0,0.0,0.0,0.0,0
0.0,17.0,11.0,-7.0,1.0,0.0,14.0,-22.0,0.0,0.0,0.0,0.0,0.0,0.0,0.0,0.0,0
1.0,27.0,13.0,4.0,7.0,6.0,9.0,-5.0,0.0,0.0,0.0,0.0,0.0,0.0,0.0,0.0,0
-5.0,28.0,-8.0,4.0,5.0,-4.0,12.0,7.0,0.0,0.0,0.0,0.0,0.0,0.0,0.0,0.0,0
-11.0,20.0,-17.0,-2.0,2.0,-6.0,8.0,3.0,0.0,0.0,0.0,0.0,0.0,0.0,0.0,0.0,0
10.0,24.0,0.0,9.0,4.0,-3.0,3.0,-5.0,0.0,0.0,0.0,0.0,0.0,0.0,0.0,0.0,0
15.0,9.0,20.0,20.0,-3.0,-5.0,-3.0,-2.0,0.0,0.0,0.0,0.0,0.0,0.0,0.0,0.0,0
19.0,-14.0,15.0,4.0,-9.0,-5.0,-11.0,-11.0,0.0,0.0,0.0,0.0,0.0,0.0,0.0,0.0,0
16.0,-32.0,-13.0,-11.0,-7.0,-4.0,-4.0,-3.0,0.0,0.0,0.0,0.0,0.0,0.0,0.0,0.0,0
-3.0,-37.0,-19.0,-20.0,-15.0,-8.0,-4.0,5.0,0.0,0.0,0.0,0.0,0.0,0.0,0.0,0.0,0
-21.0,-30.0,-19.0,-21.0,-15.0,-9.0,-18.0,6.0,0.0,0.0,0.0,0.0,0.0,0.0,0.0,0.0,0
-29.0,-26.0,-10.0,-5.0,-2.0,-10.0,-19.0,-4.0,0.0,0.0,0.0,0.0,0.0,0.0,0.0,0.0,0
-24.0,-12.0,5.0,10.0,5.0,-5.0,-13.0,-6.0,0.0,0.0,0.0,0.0,0.0,0.0,0.0,0.0,0
-8.0,-5.0,-7.0,0.0,2.0,-5.0,-20.0,1.0,0.0,0.0,0.0,0.0,0.0,0.0,0.0,0.0,0
12.0,-2.0,-19.0,-8.0,-3.0,1.0,-21.0,4.0,0.0,0.0,0.0,0.0,0.0,0.0,0.0,0.0,0
22.0,5.0,-20.0,4.0,5.0,9.0,-13.0,1.0,0.0,0.0,0.0,0.0,0.0,0.0,0.0,0.0,0
26.0,13.0,-8.0,14.0,8.0,5.0,-3.0,2.0,0.0,0.0,0.0,0.0,0.0,0.0,0.0,0.0,0
14.0,21.0,-2.0,2.0,1.0,6.0,2.0,1.0,0.0,0.0,0.0,0.0,0.0,0.0,0.0,0.0,0
-7.0,19.0,11.0,-5.0,-4.0,-1.0,15.0,3.0,0.0,0.0,0.0,0.0,0.0,0.0,0.0,0.0,0
-18.0,0.0,19.0,2.0,-5.0,2.0,15.0,3.0,0.0,0.0,0.0,0.0,0.0,0.0,0.0,0.0,0
-21.0,-4.0,15.0,0.0,-2.0,5.0,17.0,-8.0,0.0,0.0,0.0,0.0,0.0,0.0,0.0,0.0,0
-22.0,12.0,19.0,-8.0,1.0,2.0,17.0,-19.0,0.0,0.0,0.0,0.0,0.0,0.0,0.0,0.0,0
-3.0,15.0,15.0,-9.0,-2.0,-6.0,2.0,-10.0,0.0,0.0,0.0,0.0,0.0,0.0,0.0,0.0,0
16.0,6.0,4.0,-2.0,-15.0,-9.0,-1.0,-3.0,0.0,0.0,0.0,0.0,0.0,0.0,0.0,0.0,0
11.0,-3.0,-13.0,2.0,0.0,-9.0,7.0,-1.0,0.0,0.0,0.0,0.0,0.0,0.0,0.0,0.0,0
-11.0,-2.0,-20.0,2.0,2.0,-10.0,7.0,-4.0,0.0,0.0,0.0,0.0,0.0,0.0,0.0,0.0,0
-19.0,4.0,0.0,-3.0,-9.0,-9.0,-8.0,-5.0,0.0,0.0,0.0,0.0,0.0,0.0,0.0,0.0,0
-14.0,-24.0,19.0,8.0,-4.0,-7.0,-13.0,-6.0,0.0,0.0,0.0,0.0,0.0,0.0,0.0,0.0,0
-21.0,-43.0,1.0,6.0,-5.0,-2.0,-8.0,-6.0,0.0,0.0,0.0,0.0,0.0,0.0,0.0,0.0,0
-33.0,-54.0,-33.0,-16.0,-13.0,-5.0,-4.0,0.0,0.0,0.0,0.0,0.0,0.0,0.0,0.0,0.0,0
-14.0,-40.0,-46.0,-23.0,-6.0,-6.0,-15.0,-4.0,0.0,0.0,0.0,0.0,0.0,0.0,0.0,0.0,0
15.0,-17.0,-36.0,-18.0,-3.0,-7.0,-15.0,0.0,0.0,0.0,0.0,0.0,0.0,0.0,0.0,0.0,0
1.0,2.0,-12.0,-6.0,7.0,0.0,-4.0,3.0,0.0,0.0,0.0,0.0,0.0,0.0,0.0,0.0,0
17.0,18.0,9.0,1.0,11.0,1.0,-7.0,9.0,0.0,0.0,0.0,0.0,0.0,0.0,0.0,0.0,0
29.0,35.0,9.0,-10.0,1.0,-6.0,-21.0,11.0,0.0,0.0,0.0,0.0,0.0,0.0,0.0,0.0,0
26.0,42.0,9.0,-5.0,-4.0,2.0,-8.0,3.0,0.0,0.0,0.0,0.0,0.0,0.0,0.0,0.0,0
48.0,40.0,14.0,12.0,-3.0,4.0,-2.0,8.0,0.0,0.0,0.0,0.0,0.0,0.0,0.0,0.0,0
69.0,31.0,17.0,13.0,4.0,-5.0,0.0,-1.0,0.0,0.0,0.0,0.0,0.0,0.0,0.0,0.0,0
25.0,12.0,-2.0,-5.0,-7.0,-1.0,0.0,-7.0,0.0,0.0,0.0,0.0,0.0,0.0,0.0,0.0,0
-42.0,-20.0,-7.0,-3.0,-10.0,-3.0,4.0,-11.0,0.0,0.0,0.0,0.0,0.0,0.0,0.0,0.0,0
-93.0,-34.0,1.0,11.0,3.0,7.0,14.0,-5.0,0.0,0.0,0.0,0.0,0.0,0.0,0.0,0.0,0
-74.0,-25.0,22.0,18.0,2.0,6.0,21.0,-2.0,0.0,0.0,0.0,0.0,0.0,0.0,0.0,0.0,0
-47.0,0.0,21.0,9.0,-1.0,-1.0,15.0,-7.0,0.0,0.0,0.0,0.0,0.0,0.0,0.0,0.0,0
-17.0,-1.0,7.0,-3.0,-3.0,-8.0,1.0,-10.0,0.0,0.0,0.0,0.0,0.0,0.0,0.0,0.0,0
11.0,-11.0,7.0,-13.0,-8.0,-11.0,-4.0,-8.0,0.0,0.0,0.0,0.0,0.0,0.0,0.0,0.0,0
31.0,-11.0,7.0,-9.0,-3.0,-7.0,-2.0,-4.0,0.0,0.0,0.0,0.0,0.0,0.0,0.0,0.0,0
20.0,-37.0,-9.0,-1.0,-4.0,-2.0,-5.0,-1.0,0.0,0.0,0.0,0.0,0.0,0.0,0.0,0.0,0
-5.0,-35.0,-32.0,-10.0,3.0,-2.0,-6.0,-2.0,0.0,0.0,0.0,0.0,0.0,0.0,0.0,0.0,0
-27.0,-20.0,-50.0,-19.0,1.0,-4.0,1.0,-6.0,0.0,0.0,0.0,0.0,0.0,0.0,0.0,0.0,0
1.0,8.0,-39.0,-25.0,-4.0,-2.0,-2.0,-4.0,0.0,0.0,0.0,0.0,0.0,0.0,0.0,0.0,0
47.0,50.0,-18.0,-16.0,-1.0,-10.0,-21.0,5.0,0.0,0.0,0.0,0.0,0.0,0.0,0.0,0.0,0
47.0,54.0,6.0,-4.0,-3.0,-6.0,-21.0,1.0,0.0,0.0,0.0,0.0,0.0,0.0,0.0,0.0,0
7.0,32.0,22.0,8.0,-3.0,-1.0,-8.0,5.0,0.0,0.0,0.0,0.0,0.0,0.0,0.0,0.0,0
7.0,14.0,27.0,18.0,3.0,2.0,-9.0,9.0,0.0,0.0,0.0,0.0,0.0,0.0,0.0,0.0,0
10.0,-6.0,12.0,18.0,-2.0,2.0,-18.0,10.0,0.0,0.0,0.0,0.0,0.0,0.0,0.0,0.0,0
-15.0,-44.0,-10.0,1.0,-5.0,-10.0,-12.0,3.0,0.0,0.0,0.0,0.0,0.0,0.0,0.0,0.0,0
-30.0,-63.0,-27.0,-8.0,-3.0,-3.0,-5.0,-3.0,0.0,0.0,0.0,0.0,0.0,0.0,0.0,0.0,0
-28.0,-31.0,-13.0,5.0,1.0,3.0,-5.0,-1.0,0.0,0.0,0.0,0.0,0.0,0.0,0.0,0.0,0
-30.0,-2.0,7.0,5.0,0.0,7.0,6.0,-11.0,0.0,0.0,0.0,0.0,0.0,0.0,0.0,0.0,0
-23.0,-3.0,9.0,-1.0,-6.0,0.0,8.0,-11.0,0.0,0.0,0.0,0.0,0.0,0.0,0.0,0.0,0
-19.0,-5.0,1.0,-12.0,-8.0,-2.0,17.0,-8.0,0.0,0.0,0.0,0.0,0.0,0.0,0.0,0.0,0
-17.0,-19.0,0.0,-9.0,-6.0,-1.0,13.0,-14.0,0.0,0.0,0.0,0.0,0.0,0.0,0.0,0.0,0
-2.0,3.0,-4.0,-14.0,1.0,-2.0,9.0,-5.0,0.0,0.0,0.0,0.0,0.0,0.0,0.0,0.0,0
19.0,49.0,0.0,-8.0,1.0,0.0,11.0,3.0,0.0,0.0,0.0,0.0,0.0,0.0,0.0,0.0,0
22.0,60.0,13.0,0.0,3.0,4.0,12.0,2.0,0.0,0.0,0.0,0.0,0.0,0.0,0.0,0.0,0
11.0,34.0,25.0,12.0,1.0,1.0,4.0,-3.0,0.0,0.0,0.0,0.0,0.0,0.0,0.0,0.0,0
8.0,16.0,27.0,8.0,0.0,-10.0,-5.0,-11.0,0.0,0.0,0.0,0.0,0.0,0.0,0.0,0.0,0
4.0,-20.0,-18.0,-22.0,-14.0,-25.0,-16.0,-9.0,0.0,0.0,0.0,0.0,0.0,0.0,0.0,0.0,0
8.0,-37.0,-34.0,-36.0,-17.0,-11.0,-11.0,-6.0,0.0,0.0,0.0,0.0,0.0,0.0,0.0,0.0,0
-15.0,-30.0,-17.0,-9.0,-7.0,-2.0,-3.0,-6.0,0.0,0.0,0.0,0.0,0.0,0.0,0.0,0.0,0
-27.0,-19.0,-3.0,-1.0,1.0,-4.0,-15.0,0.0,0.0,0.0,0.0,0.0,0.0,0.0,0.0,0.0,0
-29.0,-26.0,-13.0,0.0,9.0,-10.0,-25.0,-3.0,0.0,0.0,0.0,0.0,0.0,0.0,0.0,0.0,0
-30.0,-37.0,-17.0,0.0,5.0,-2.0,-10.0,5.0,0.0,0.0,0.0,0.0,0.0,0.0,0.0,0.0,0
-16.0,-20.0,-22.0,6.0,-2.0,2.0,-12.0,12.0,0.0,0.0,0.0,0.0,0.0,0.0,0.0,0.0,0
20.0,-9.0,-17.0,9.0,-2.0,0.0,-11.0,5.0,0.0,0.0,0.0,0.0,0.0,0.0,0.0,0.0,0
71.0,25.0,3.0,17.0,7.0,5.0,-4.0,3.0,0.0,0.0,0.0,0.0,0.0,0.0,0.0,0.0,0
76.0,40.0,9.0,8.0,8.0,10.0,-4.0,8.0,0.0,0.0,0.0,0.0,0.0,0.0,0.0,0.0,0
36.0,31.0,20.0,-1.0,-6.0,-1.0,-5.0,8.0,0.0,0.0,0.0,0.0,0.0,0.0,0.0,0.0,0
-24.0,16.0,22.0,6.0,-9.0,-5.0,2.0,2.0,0.0,0.0,0.0,0.0,0.0,0.0,0.0,0.0,0
-55.0,-6.0,18.0,6.0,-3.0,-3.0,6.0,-6.0,0.0,0.0,0.0,0.0,0.0,0.0,0.0,0.0,0
-52.0,-11.0,9.0,0.0,-1.0,3.0,15.0,-15.0,0.0,0.0,0.0,0.0,0.0,0.0,0.0,0.0,0
-45.0,-6.0,4.0,-9.0,-2.0,-2.0,20.0,-15.0,0.0,0.0,0.0,0.0,0.0,0.0,0.0,0.0,0
-30.0,-9.0,2.0,-11.0,1.0,-9.0,10.0,-16.0,0.0,0.0,0.0,0.0,0.0,0.0,0.0,0.0,0
-20.0,-17.0,-10.0,-14.0,-5.0,-3.0,5.0,-11.0,0.0,0.0,0.0,0.0,0.0,0.0,0.0,0.0,0
-6.0,-13.0,-31.0,-21.0,-14.0,-5.0,1.0,-10.0,0.0,0.0,0.0,0.0,0.0,0.0,0.0,0.0,0
8.0,-6.0,-25.0,-29.0,-14.0,-8.0,-2.0,-8.0,0.0,0.0,0.0,0.0,0.0,0.0,0.0,0.0,0
14.0,-13.0,-23.0,-24.0,-16.0,-3.0,5.0,1.0,0.0,0.0,0.0,0.0,0.0,0.0,0.0,0.0,0
23.0,0.0,-8.0,-11.0,-12.0,-2.0,-4.0,4.0,0.0,0.0,0.0,0.0,0.0,0.0,0.0,0.0,0
28.0,15.0,27.0,9.0,-1.0,-3.0,-4.0,-5.0,0.0,0.0,0.0,0.0,0.0,0.0,0.0,0.0,0
21.0,29.0,24.0,10.0,1.0,-2.0,-1.0,-2.0,0.0,0.0,0.0,0.0,0.0,0.0,0.0,0.0,0
8.0,3.0,-18.0,-6.0,-5.0,-5.0,-19.0,0.0,0.0,0.0,0.0,0.0,0.0,0.0,0.0,0.0,0
-1.0,-12.0,-26.0,-6.0,-1.0,-7.0,-27.0,3.0,0.0,0.0,0.0,0.0,0.0,0.0,0.0,0.0,0
-20.0,-8.0,-9.0,12.0,6.0,-2.0,-9.0,4.0,0.0,0.0,0.0,0.0,0.0,0.0,0.0,0.0,0
-17.0,-1.0,8.0,18.0,7.0,-1.0,-21.0,3.0,0.0,0.0,0.0,0.0,0.0,0.0,0.0,0.0,0
-16.0,-18.0,4.0,18.0,8.0,0.0,-15.0,5.0,0.0,0.0,0.0,0.0,0.0,0.0,0.0,0.0,0
-20.0,-42.0,2.0,18.0,4.0,-2.0,-2.0,2.0,0.0,0.0,0.0,0.0,0.0,0.0,0.0,0.0,0
3.0,-33.0,-1.0,6.0,-2.0,-2.0,-7.0,-8.0,0.0,0.0,0.0,0.0,0.0,0.0,0.0,0.0,0
36.0,-4.0,-8.0,-7.0,-5.0,-3.0,-1.0,-5.0,0.0,0.0,0.0,0.0,0.0,0.0,0.0,0.0,0
19.0,21.0,4.0,0.0,-1.0,3.0,12.0,4.0,0.0,0.0,0.0,0.0,0.0,0.0,0.0,0.0,0
-5.0,36.0,11.0,-1.0,-3.0,4.0,19.0,5.0,0.0,0.0,0.0,0.0,0.0,0.0,0.0,0.0,0
-18.0,37.0,15.0,-16.0,-9.0,5.0,18.0,-7.0,0.0,0.0,0.0,0.0,0.0,0.0,0.0,0.0,0
-22.0,15.0,-4.0,-34.0,-14.0,-1.0,20.0,-7.0,0.0,0.0,0.0,0.0,0.0,0.0,0.0,0.0,0
-18.0,-10.0,-24.0,-36.0,-14.0,-9.0,10.0,-11.0,0.0,0.0,0.0,0.0,0.0,0.0,0.0,0.0,0
-15.0,-25.0,-26.0,-26.0,-6.0,-13.0,1.0,-12.0,0.0,0.0,0.0,0.0,0.0,0.0,0.0,0.0,0
-5.0,-11.0,-8.0,-5.0,-1.0,-2.0,2.0,-11.0,0.0,0.0,0.0,0.0,0.0,0.0,0.0,0.0,0
4.0,-10.0,6.0,7.0,-5.0,-1.0,-4.0,-11.0,0.0,0.0,0.0,0.0,0.0,0.0,0.0,0.0,0
-1.0,-13.0,10.0,17.0,-2.0,-5.0,-12.0,-6.0,0.0,0.0,0.0,0.0,0.0,0.0,0.0,0.0,0
12.0,7.0,34.0,28.0,12.0,-7.0,-17.0,4.0,0.0,0.0,0.0,0.0,0.0,0.0,0.0,0.0,0
0.0,10.0,34.0,30.0,14.0,0.0,-4.0,4.0,0.0,0.0,0.0,0.0,0.0,0.0,0.0,0.0,0
-26.0,-15.0,-2.0,11.0,4.0,-1.0,2.0,0.0,0.0,0.0,0.0,0.0,0.0,0.0,0.0,0.0,0
-16.0,-21.0,-35.0,-14.0,-6.0,-8.0,-13.0,7.0,0.0,0.0,0.0,0.0,0.0,0.0,0.0,0.0,0
-4.0,-18.0,-47.0,-17.0,-10.0,-11.0,-13.0,1.0,0.0,0.0,0.0,0.0,0.0,0.0,0.0,0.0,0
24.0,-6.0,-26.0,-16.0,-8.0,-2.0,-9.0,-6.0,0.0,0.0,0.0,0.0,0.0,0.0,0.0,0.0,0
43.0,5.0,-14.0,-9.0,-1.0,-4.0,-18.0,-4.0,0.0,0.0,0.0,0.0,0.0,0.0,0.0,0.0,0
37.0,-2.0,-12.0,-4.0,-8.0,-7.0,-21.0,1.0,0.0,0.0,0.0,0.0,0.0,0.0,0.0,0.0,0
32.0,3.0,7.0,6.0,-3.0,1.0,-9.0,3.0,0.0,0.0,0.0,0.0,0.0,0.0,0.0,0.0,0
40.0,21.0,15.0,5.0,-6.0,1.0,-6.0,7.0,0.0,0.0,0.0,0.0,0.0,0.0,0.0,0.0,0
9.0,25.0,20.0,2.0,-7.0,4.0,-2.0,10.0,0.0,0.0,0.0,0.0,0.0,0.0,0.0,0.0,0
-59.0,-8.0,19.0,1.0,5.0,8.0,12.0,2.0,0.0,0.0,0.0,0.0,0.0,0.0,0.0,0.0,0
-105.0,-31.0,17.0,-1.0,9.0,7.0,19.0,-5.0,0.0,0.0,0.0,0.0,0.0,0.0,0.0,0.0,0
-96.0,-22.0,14.0,-4.0,3.0,-1.0,23.0,-10.0,0.0,0.0,0.0,0.0,0.0,0.0,0.0,0.0,0
-57.0,-25.0,-1.0,-14.0,2.0,-2.0,14.0,-7.0,0.0,0.0,0.0,0.0,0.0,0.0,0.0,0.0,0
7.0,-9.0,-17.0,-17.0,-7.0,-3.0,5.0,-7.0,0.0,0.0,0.0,0.0,0.0,0.0,0.0,0.0,0
42.0,-1.0,-28.0,-9.0,-6.0,-6.0,-4.0,-9.0,0.0,0.0,0.0,0.0,0.0,0.0,0.0,0.0,0
49.0,3.0,-22.0,-8.0,2.0,-9.0,-6.0,-10.0,0.0,0.0,0.0,0.0,0.0,0.0,0.0,0.0,0
34.0,-1.0,-23.0,2.0,0.0,-7.0,-9.0,-11.0,0.0,0.0,0.0,0.0,0.0,0.0,0.0,0.0,0
24.0,5.0,-23.0,2.0,-5.0,-13.0,-7.0,-9.0,0.0,0.0,0.0,0.0,0.0,0.0,0.0,0.0,0
23.0,16.0,-20.0,-4.0,-8.0,-7.0,-4.0,-5.0,0.0,0.0,0.0,0.0,0.0,0.0,0.0,0.0,0
30.0,30.0,14.0,3.0,-5.0,-2.0,-4.0,1.0,0.0,0.0,0.0,0.0,0.0,0.0,0.0,0.0,0
5.0,30.0,45.0,11.0,-2.0,-3.0,-6.0,2.0,0.0,0.0,0.0,0.0,0.0,0.0,0.0,0.0,0
-21.0,19.0,52.0,15.0,-3.0,-3.0,-12.0,4.0,0.0,0.0,0.0,0.0,0.0,0.0,0.0,0.0,0
-41.0,-8.0,31.0,6.0,-9.0,-4.0,-12.0,9.0,0.0,0.0,0.0,0.0,0.0,0.0,0.0,0.0,0
-49.0,-33.0,-12.0,-13.0,-10.0,-2.0,-6.0,-2.0,0.0,0.0,0.0,0.0,0.0,0.0,0.0,0.0,0
-25.0,-37.0,-35.0,-10.0,-4.0,-4.0,-16.0,-7.0,0.0,0.0,0.0,0.0,0.0,0.0,0.0,0.0,0
2.0,-23.0,-39.0,-6.0,4.0,1.0,-20.0,4.0,0.0,0.0,0.0,0.0,0.0,0.0,0.0,0.0,0
19.0,-17.0,-34.0,-1.0,6.0,-1.0,-12.0,6.0,0.0,0.0,0.0,0.0,0.0,0.0,0.0,0.0,0
35.0,-14.0,-28.0,-6.0,-5.0,-6.0,-15.0,-3.0,0.0,0.0,0.0,0.0,0.0,0.0,0.0,0.0,0
44.0,-10.0,-22.0,-19.0,-8.0,-3.0,-1.0,2.0,0.0,0.0,0.0,0.0,0.0,0.0,0.0,0.0,0
24.0,0.0,-16.0,-15.0,-2.0,-1.0,5.0,3.0,0.0,0.0,0.0,0.0,0.0,0.0,0.0,0.0,0
10.0,20.0,19.0,0.0,-8.0,-5.0,9.0,-8.0,0.0,0.0,0.0,0.0,0.0,0.0,0.0,0.0,0
-12.0,11.0,56.0,23.0,0.0,5.0,23.0,-4.0,0.0,0.0,0.0,0.0,0.0,0.0,0.0,0.0,0
-65.0,-2.0,38.0,19.0,13.0,5.0,27.0,-6.0,0.0,0.0,0.0,0.0,0.0,0.0,0.0,0.0,0
-73.0,-2.0,-18.0,-2.0,3.0,-2.0,9.0,-8.0,0.0,0.0,0.0,0.0,0.0,0.0,0.0,0.0,0
-39.0,-7.0,-28.0,-5.0,-2.0,-4.0,2.0,-5.0,0.0,0.0,0.0,0.0,0.0,0.0,0.0,0.0,0
-30.0,-6.0,-1.0,-3.0,0.0,-3.0,-5.0,-4.0,0.0,0.0,0.0,0.0,0.0,0.0,0.0,0.0,0
-23.0,3.0,22.0,-3.0,-9.0,-3.0,-9.0,0.0,0.0,0.0,0.0,0.0,0.0,0.0,0.0,0.0,0
40.0,23.0,16.0,-10.0,-10.0,-6.0,-2.0,-4.0,0.0,0.0,0.0,0.0,0.0,0.0,0.0,0.0,0
74.0,25.0,-1.0,-16.0,-3.0,-7.0,4.0,-5.0,0.0,0.0,0.0,0.0,0.0,0.0,0.0,0.0,0
43.0,7.0,-12.0,-8.0,-4.0,-7.0,4.0,3.0,0.0,0.0,0.0,0.0,0.0,0.0,0.0,0.0,0
4.0,-37.0,-10.0,4.0,-2.0,-2.0,-2.0,-7.0,0.0,0.0,0.0,0.0,0.0,0.0,0.0,0.0,0
-10.0,-61.0,-16.0,2.0,-5.0,0.0,-10.0,-6.0,0.0,0.0,0.0,0.0,0.0,0.0,0.0,0.0,0
-27.0,-57.0,-44.0,-12.0,-8.0,-3.0,-16.0,-6.0,0.0,0.0,0.0,0.0,0.0,0.0,0.0,0.0,0
-31.0,-9.0,-24.0,-17.0,-7.0,-13.0,-18.0,-4.0,0.0,0.0,0.0,0.0,0.0,0.0,0.0,0.0,0
15.0,61.0,9.0,0.0,-2.0,-12.0,-22.0,2.0,0.0,0.0,0.0,0.0,0.0,0.0,0.0,0.0,0
52.0,78.0,18.0,23.0,6.0,-4.0,-15.0,14.0,0.0,0.0,0.0,0.0,0.0,0.0,0.0,0.0,0
15.0,39.0,26.0,37.0,10.0,7.0,-10.0,10.0,0.0,0.0,0.0,0.0,0.0,0.0,0.0,0.0,0
-27.0,-20.0,-16.0,2.0,-3.0,-1.0,-6.0,-3.0,0.0,0.0,0.0,0.0,0.0,0.0,0.0,0.0,0
0.0,-49.0,-38.0,-18.0,-7.0,3.0,-7.0,-2.0,0.0,0.0,0.0,0.0,0.0,0.0,0.0,0.0,0
-1.0,-39.0,-22.0,-19.0,-10.0,3.0,4.0,-1.0,0.0,0.0,0.0,0.0,0.0,0.0,0.0,0.0,0
-28.0,-33.0,-1.0,-19.0,-8.0,3.0,8.0,-1.0,0.0,0.0,0.0,0.0,0.0,0.0,0.0,0.0,0
-26.0,-13.0,12.0,-13.0,-2.0,9.0,20.0,-1.0,0.0,0.0,0.0,0.0,0.0,0.0,0.0,0.0,0
-20.0,21.0,27.0,-1.0,5.0,2.0,18.0,-12.0,0.0,0.0,0.0,0.0,0.0,0.0,0.0,0.0,0
-8.0,41.0,46.0,16.0,9.0,3.0,15.0,-13.0,0.0,0.0,0.0,0.0,0.0,0.0,0.0,0.0,0
1.0,34.0,42.0,12.0,5.0,-6.0,6.0,-9.0,0.0,0.0,0.0,0.0,0.0,0.0,0.0,0.0,0
-6.0,3.0,-1.0,0.0,-7.0,-9.0,-2.0,-9.0,0.0,0.0,0.0,0.0,0.0,0.0,0.0,0.0,0
-21.0,-14.0,-45.0,-19.0,-8.0,-8.0,-3.0,-4.0,0.0,0.0,0.0,0.0,0.0,0.0,0.0,0.0,0
-15.0,-17.0,-36.0,-18.0,-14.0,-5.0,-6.0,2.0,0.0,0.0,0.0,0.0,0.0,0.0,0.0,0.0,0
-10.0,-20.0,-18.0,-21.0,-9.0,-6.0,-5.0,3.0,0.0,0.0,0.0,0.0,0.0,0.0,0.0,0.0,0
-2.0,-33.0,-18.0,-19.0,-6.0,-3.0,-2.0,-3.0,0.0,0.0,0.0,0.0,0.0,0.0,0.0,0.0,0
15.0,-15.0,-18.0,0.0,-2.0,1.0,-7.0,0.0,0.0,0.0,0.0,0.0,0.0,0.0,0.0,0.0,0
34.0,14.0,-4.0,12.0,0.0,-5.0,-15.0,3.0,0.0,0.0,0.0,0.0,0.0,0.0,0.0,0.0,0
33.0,15.0,8.0,15.0,4.0,-9.0,-11.0,-8.0,0.0,0.0,0.0,0.0,0.0,0.0,0.0,0.0,0
5.0,8.0,17.0,15.0,1.0,-8.0,-14.0,-10.0,0.0,0.0,0.0,0.0,0.0,0.0,0.0,0.0,0
-18.0,-10.0,7.0,1.0,-2.0,-3.0,-16.0,-1.0,0.0,0.0,0.0,0.0,0.0,0.0,0.0,0.0,0
-9.0,7.0,-8.0,-9.0,-4.0,-1.0,-21.0,13.0,0.0,0.0,0.0,0.0,0.0,0.0,0.0,0.0,0
3.0,7.0,-12.0,-4.0,2.0,0.0,-13.0,10.0,0.0,0.0,0.0,0.0,0.0,0.0,0.0,0.0,0
-3.0,-8.0,-13.0,0.0,3.0,3.0,-7.0,10.0,0.0,0.0,0.0,0.0,0.0,0.0,0.0,0.0,0
4.0,-7.0,-6.0,2.0,5.0,6.0,2.0,0.0,0.0,0.0,0.0,0.0,0.0,0.0,0.0,0.0,0
-4.0,-13.0,-7.0,-3.0,6.0,9.0,7.0,-7.0,0.0,0.0,0.0,0.0,0.0,0.0,0.0,0.0,0
-3.0,0.0,9.0,1.0,-7.0,2.0,11.0,-8.0,0.0,0.0,0.0,0.0,0.0,0.0,0.0,0.0,0
-14.0,4.0,17.0,7.0,-10.0,-2.0,15.0,-8.0,0.0,0.0,0.0,0.0,0.0,0.0,0.0,0.0,0
-30.0,0.0,24.0,3.0,-4.0,-2.0,13.0,-8.0,0.0,0.0,0.0,0.0,0.0,0.0,0.0,0.0,0
-26.0,-2.0,26.0,1.0,-3.0,-5.0,8.0,-14.0,0.0,0.0,0.0,0.0,0.0,0.0,0.0,0.0,0
-10.0,5.0,16.0,-1.0,-7.0,-2.0,7.0,-10.0,0.0,0.0,0.0,0.0,0.0,0.0,0.0,0.0,0
-5.0,11.0,-14.0,-30.0,-16.0,-10.0,-3.0,-5.0,0.0,0.0,0.0,0.0,0.0,0.0,0.0,0.0,0
14.0,16.0,-30.0,-45.0,-16.0,-16.0,-6.0,-9.0,0.0,0.0,0.0,0.0,0.0,0.0,0.0,0.0,0
33.0,4.0,-34.0,-37.0,-7.0,-14.0,-9.0,-7.0,0.0,0.0,0.0,0.0,0.0,0.0,0.0,0.0,0
19.0,-26.0,-22.0,-11.0,1.0,-8.0,-9.0,-13.0,0.0,0.0,0.0,0.0,0.0,0.0,0.0,0.0,0
2.0,-15.0,1.0,22.0,18.0,2.0,-8.0,-9.0,0.0,0.0,0.0,0.0,0.0,0.0,0.0,0.0,0
-4.0,-5.0,-12.0,19.0,13.0,6.0,-2.0,-2.0,0.0,0.0,0.0,0.0,0.0,0.0,0.0,0.0,0
3.0,-22.0,-22.0,9.0,1.0,4.0,-17.0,5.0,0.0,0.0,0.0,0.0,0.0,0.0,0.0,0.0,0
-20.0,-34.0,-12.0,13.0,-5.0,-1.0,-7.0,12.0,0.0,0.0,0.0,0.0,0.0,0.0,0.0,0.0,0
-73.0,-55.0,-8.0,9.0,-10.0,-2.0,-4.0,8.0,0.0,0.0,0.0,0.0,0.0,0.0,0.0,0.0,0
-47.0,-23.0,14.0,9.0,-8.0,-8.0,-8.0,12.0,0.0,0.0,0.0,0.0,0.0,0.0,0.0,0.0,0
33.0,41.0,25.0,12.0,-4.0,-7.0,-19.0,11.0,0.0,0.0,0.0,0.0,0.0,0.0,0.0,0.0,0
56.0,62.0,21.0,7.0,-6.0,-4.0,-12.0,4.0,0.0,0.0,0.0,0.0,0.0,0.0,0.0,0.0,0
48.0,56.0,10.0,-1.0,-2.0,1.0,-11.0,3.0,0.0,0.0,0.0,0.0,0.0,0.0,0.0,0.0,0
26.0,25.0,-10.0,-11.0,7.0,-1.0,-9.0,-3.0,0.0,0.0,0.0,0.0,0.0,0.0,0.0,0.0,0
7.0,-21.0,-28.0,-25.0,5.0,-1.0,5.0,-10.0,0.0,0.0,0.0,0.0,0.0,0.0,0.0,0.0,0
-11.0,-42.0,-27.0,-25.0,-5.0,2.0,8.0,-12.0,0.0,0.0,0.0,0.0,0.0,0.0,0.0,0.0,0
-28.0,-30.0,-6.0,-14.0,-9.0,2.0,17.0,-21.0,0.0,0.0,0.0,0.0,0.0,0.0,0.0,0.0,0
-35.0,-15.0,14.0,3.0,-9.0,1.0,16.0,-15.0,0.0,0.0,0.0,0.0,0.0,0.0,0.0,0.0,0
-34.0,-8.0,19.0,8.0,-3.0,-7.0,9.0,-1.0,0.0,0.0,0.0,0.0,0.0,0.0,0.0,0.0,0
-31.0,-6.0,16.0,7.0,3.0,-5.0,3.0,-3.0,0.0,0.0,0.0,0.0,0.0,0.0,0.0,0.0,0
-6.0,-1.0,23.0,19.0,2.0,-5.0,1.0,4.0,0.0,0.0,0.0,0.0,0.0,0.0,0.0,0.0,0
7.0,13.0,23.0,23.0,1.0,9.0,6.0,-1.0,0.0,0.0,0.0,0.0,0.0,0.0,0.0,0.0,0
2.0,11.0,-2.0,10.0,2.0,4.0,1.0,-5.0,0.0,0.0,0.0,0.0,0.0,0.0,0.0,0.0,0
11.0,8.0,-22.0,-12.0,-2.0,-11.0,-5.0,-3.0,0.0,0.0,0.0,0.0,0.0,0.0,0.0,0.0,0
14.0,12.0,-13.0,-20.0,-9.0,-13.0,-7.0,1.0,0.0,0.0,0.0,0.0,0.0,0.0,0.0,0.0,0
4.0,4.0,-6.0,-16.0,-9.0,-6.0,-12.0,-1.0,0.0,0.0,0.0,0.0,0.0,0.0,0.0,0.0,0
18.0,-14.0,-10.0,-23.0,-8.0,-6.0,-13.0,2.0,0.0,0.0,0.0,0.0,0.0,0.0,0.0,0.0,0
9.0,-8.0,-26.0,-28.0,-9.0,-6.0,-11.0,-4.0,0.0,0.0,0.0,0.0,0.0,0.0,0.0,0.0,0
-12.0,-9.0,-39.0,-23.0,-10.0,-5.0,-11.0,-8.0,0.0,0.0,0.0,0.0,0.0,0.0,0.0,0.0,0
-8.0,-17.0,-30.0,-7.0,-1.0,-1.0,-9.0,2.0,0.0,0.0,0.0,0.0,0.0,0.0,0.0,0.0,0
-3.0,-32.0,-24.0,-2.0,2.0,-2.0,-12.0,3.0,0.0,0.0,0.0,0.0,0.0,0.0,0.0,0.0,0
-5.0,-23.0,-10.0,5.0,0.0,-3.0,-17.0,1.0,0.0,0.0,0.0,0.0,0.0,0.0,0.0,0.0,0
1.0,-11.0,4.0,6.0,-3.0,-2.0,-11.0,0.0,0.0,0.0,0.0,0.0,0.0,0.0,0.0,0.0,0
14.0,14.0,21.0,16.0,4.0,0.0,-5.0,10.0,0.0,0.0,0.0,0.0,0.0,0.0,0.0,0.0,0
24.0,39.0,41.0,22.0,8.0,4.0,7.0,5.0,0.0,0.0,0.0,0.0,0.0,0.0,0.0,0.0,0
-13.0,14.0,23.0,19.0,6.0,2.0,14.0,-10.0,0.0,0.0,0.0,0.0,0.0,0.0,0.0,0.0,0
-77.0,-27.0,18.0,14.0,3.0,-1.0,23.0,-15.0,0.0,0.0,0.0,0.0,0.0,0.0,0.0,0.0,0
-46.0,-10.0,17.0,0.0,3.0,6.0,22.0,-13.0,0.0,0.0,0.0,0.0,0.0,0.0,0.0,0.0,0
15.0,9.0,0.0,-10.0,2.0,1.0,9.0,-5.0,0.0,0.0,0.0,0.0,0.0,0.0,0.0,0.0,0
35.0,15.0,-2.0,-5.0,-3.0,3.0,4.0,3.0,0.0,0.0,0.0,0.0,0.0,0.0,0.0,0.0,0
21.0,16.0,4.0,-6.0,-10.0,5.0,5.0,1.0,0.0,0.0,0.0,0.0,0.0,0.0,0.0,0.0,0
2.0,16.0,-8.0,-18.0,-18.0,-7.0,0.0,-4.0,0.0,0.0,0.0,0.0,0.0,0.0,0.0,0.0,0
-14.0,10.0,-19.0,-33.0,-19.0,-14.0,-11.0,-13.0,0.0,0.0,0.0,0.0,0.0,0.0,0.0,0.0,0
-11.0,1.0,-10.0,-17.0,-2.0,-15.0,-16.0,-13.0,0.0,0.0,0.0,0.0,0.0,0.0,0.0,0.0,0
-3.0,-10.0,-2.0,-3.0,1.0,-11.0,-11.0,-3.0,0.0,0.0,0.0,0.0,0.0,0.0,0.0,0.0,0
-6.0,-36.0,-7.0,1.0,0.0,-3.0,-7.0,-5.0,0.0,0.0,0.0,0.0,0.0,0.0,0.0,0.0,0
1.0,-35.0,-6.0,11.0,4.0,-1.0,-13.0,-5.0,0.0,0.0,0.0,0.0,0.0,0.0,0.0,0.0,0
-4.0,-18.0,-11.0,2.0,0.0,-3.0,-14.0,8.0,0.0,0.0,0.0,0.0,0.0,0.0,0.0,0.0,0
-11.0,-11.0,-16.0,4.0,2.0,-1.0,-7.0,8.0,0.0,0.0,0.0,0.0,0.0,0.0,0.0,0.0,0
-4.0,-17.0,-25.0,-2.0,0.0,0.0,-9.0,3.0,0.0,0.0,0.0,0.0,0.0,0.0,0.0,0.0,0
17.0,-8.0,-29.0,-13.0,-6.0,3.0,-13.0,5.0,0.0,0.0,0.0,0.0,0.0,0.0,0.0,0.0,0
25.0,14.0,-20.0,-12.0,-11.0,7.0,-12.0,10.0,0.0,0.0,0.0,0.0,0.0,0.0,0.0,0.0,0
21.0,15.0,-4.0,2.0,-4.0,1.0,-7.0,6.0,0.0,0.0,0.0,0.0,0.0,0.0,0.0,0.0,0
-4.0,2.0,7.0,3.0,9.0,0.0,-4.0,-6.0,0.0,0.0,0.0,0.0,0.0,0.0,0.0,0.0,0
5.0,28.0,41.0,14.0,1.0,-2.0,0.0,-10.0,0.0,0.0,0.0,0.0,0.0,0.0,0.0,0.0,0
-3.0,17.0,35.0,11.0,-7.0,-5.0,5.0,-12.0,0.0,0.0,0.0,0.0,0.0,0.0,0.0,0.0,0
-35.0,-27.0,-6.0,-9.0,-11.0,-5.0,13.0,-13.0,0.0,0.0,0.0,0.0,0.0,0.0,0.0,0.0,0
-36.0,-15.0,-5.0,0.0,-1.0,4.0,17.0,-12.0,0.0,0.0,0.0,0.0,0.0,0.0,0.0,0.0,0
-6.0,14.0,19.0,21.0,15.0,4.0,13.0,1.0,0.0,0.0,0.0,0.0,0.0,0.0,0.0,0.0,0
0.0,12.0,11.0,8.0,10.0,1.0,10.0,4.0,0.0,0.0,0.0,0.0,0.0,0.0,0.0,0.0,0
-9.0,6.0,-10.0,-20.0,-12.0,-5.0,5.0,0.0,0.0,0.0,0.0,0.0,0.0,0.0,0.0,0.0,0
-5.0,17.0,2.0,-16.0,-14.0,-8.0,1.0,3.0,0.0,0.0,0.0,0.0,0.0,0.0,0.0,0.0,0
1.0,19.0,6.0,-5.0,-4.0,-3.0,-2.0,0.0,0.0,0.0,0.0,0.0,0.0,0.0,0.0,0.0,0
-10.0,-23.0,-13.0,-15.0,-9.0,-6.0,-16.0,-5.0,0.0,0.0,0.0,0.0,0.0,0.0,0.0,0.0,0
-37.0,-57.0,-19.0,-9.0,-4.0,-6.0,-7.0,-16.0,0.0,0.0,0.0,0.0,0.0,0.0,0.0,0.0,0
-32.0,-46.0,-20.0,-11.0,-9.0,-9.0,-6.0,-15.0,0.0,0.0,0.0,0.0,0.0,0.0,0.0,0.0,0
8.0,-31.0,-18.0,-2.0,-5.0,-10.0,-19.0,-8.0,0.0,0.0,0.0,0.0,0.0,0.0,0.0,0.0,0
30.0,-16.0,-8.0,3.0,-1.0,-4.0,-16.0,2.0,0.0,0.0,0.0,0.0,0.0,0.0,0.0,0.0,0
33.0,10.0,-1.0,8.0,4.0,0.0,-9.0,3.0,0.0,0.0,0.0,0.0,0.0,0.0,0.0,0.0,0
47.0,51.0,15.0,8.0,0.0,4.0,-11.0,11.0,0.0,0.0,0.0,0.0,0.0,0.0,0.0,0.0,0
39.0,39.0,-15.0,-8.0,-3.0,1.0,-14.0,7.0,0.0,0.0,0.0,0.0,0.0,0.0,0.0,0.0,0
9.0,12.0,-45.0,-14.0,-3.0,0.0,-9.0,7.0,0.0,0.0,0.0,0.0,0.0,0.0,0.0,0.0,0
-10.0,17.0,-25.0,0.0,8.0,-7.0,-5.0,4.0,0.0,0.0,0.0,0.0,0.0,0.0,0.0,0.0,0
-8.0,-1.0,7.0,12.0,9.0,1.0,-5.0,5.0,0.0,0.0,0.0,0.0,0.0,0.0,0.0,0.0,0
-21.0,-34.0,7.0,2.0,-5.0,0.0,1.0,-1.0,0.0,0.0,0.0,0.0,0.0,0.0,0.0,0.0,0
-38.0,-46.0,6.0,-13.0,-15.0,-7.0,9.0,-9.0,0.0,0.0,0.0,0.0,0.0,0.0,0.0,0.0,0
-54.0,-46.0,24.0,-2.0,-9.0,2.0,13.0,-13.0,0.0,0.0,0.0,0.0,0.0,0.0,0.0,0.0,0
-43.0,-23.0,31.0,1.0,0.0,8.0,19.0,-9.0,0.0,0.0,0.0,0.0,0.0,0.0,0.0,0.0,0
-2.0,16.0,27.0,5.0,2.0,3.0,13.0,-10.0,0.0,0.0,0.0,0.0,0.0,0.0,0.0,0.0,0
19.0,53.0,20.0,10.0,0.0,0.0,10.0,-8.0,0.0,0.0,0.0,0.0,0.0,0.0,0.0,0.0,0
23.0,64.0,9.0,-1.0,-6.0,-10.0,4.0,-2.0,0.0,0.0,0.0,0.0,0.0,0.0,0.0,0.0,0
21.0,40.0,3.0,0.0,-4.0,-10.0,1.0,-4.0,0.0,0.0,0.0,0.0,0.0,0.0,0.0,0.0,0
12.0,0.0,-13.0,-21.0,-4.0,-11.0,-7.0,-4.0,0.0,0.0,0.0,0.0,0.0,0.0,0.0,0.0,0
-9.0,-36.0,-42.0,-42.0,-6.0,-9.0,-11.0,-3.0,0.0,0.0,0.0,0.0,0.0,0.0,0.0,0.0,0
-28.0,-52.0,-38.0,-24.0,-7.0,-5.0,-5.0,-6.0,0.0,0.0,0.0,0.0,0.0,0.0,0.0,0.0,0
-21.0,-52.0,-24.0,1.0,-1.0,-2.0,-5.0,-6.0,0.0,0.0,0.0,0.0,0.0,0.0,0.0,0.0,0
12.0,-28.0,-5.0,16.0,8.0,0.0,-12.0,1.0,0.0,0.0,0.0,0.0,0.0,0.0,0.0,0.0,0
34.0,-6.0,13.0,17.0,2.0,1.0,-18.0,4.0,0.0,0.0,0.0,0.0,0.0,0.0,0.0,0.0,0
19.0,3.0,1.0,8.0,-3.0,1.0,-11.0,3.0,0.0,0.0,0.0,0.0,0.0,0.0,0.0,0.0,0
10.0,10.0,-21.0,-4.0,-6.0,-7.0,-16.0,6.0,0.0,0.0,0.0,0.0,0.0,0.0,0.0,0.0,0
6.0,17.0,-3.0,2.0,-2.0,-6.0,-18.0,8.0,0.0,0.0,0.0,0.0,0.0,0.0,0.0,0.0,0
-6.0,31.0,10.0,7.0,2.0,-2.0,-8.0,7.0,0.0,0.0,0.0,0.0,0.0,0.0,0.0,0.0,0
-28.0,20.0,1.0,5.0,1.0,-2.0,-4.0,5.0,0.0,0.0,0.0,0.0,0.0,0.0,0.0,0.0,0
-29.0,0.0,-2.0,-1.0,-8.0,1.0,-2.0,-4.0,0.0,0.0,0.0,0.0,0.0,0.0,0.0,0.0,0
-21.0,-13.0,2.0,-10.0,-8.0,0.0,8.0,-8.0,0.0,0.0,0.0,0.0,0.0,0.0,0.0,0.0,0
-10.0,-33.0,2.0,-16.0,1.0,-1.0,8.0,-13.0,0.0,0.0,0.0,0.0,0.0,0.0,0.0,0.0,0
14.0,8.0,23.0,-4.0,0.0,-1.0,18.0,-14.0,0.0,0.0,0.0,0.0,0.0,0.0,0.0,0.0,0
-4.0,-8.0,13.0,-11.0,-4.0,-2.0,14.0,-11.0,0.0,0.0,0.0,0.0,0.0,0.0,0.0,0.0,0
-31.0,-57.0,-27.0,-20.0,-12.0,0.0,7.0,-8.0,0.0,0.0,0.0,0.0,0.0,0.0,0.0,0.0,0
-25.0,-34.0,-27.0,-12.0,-1.0,1.0,8.0,0.0,0.0,0.0,0.0,0.0,0.0,0.0,0.0,0.0,0
14.0,19.0,-11.0,-4.0,-2.0,2.0,3.0,-3.0,0.0,0.0,0.0,0.0,0.0,0.0,0.0,0.0,0
24.0,54.0,4.0,0.0,1.0,-7.0,1.0,-1.0,0.0,0.0,0.0,0.0,0.0,0.0,0.0,0.0,0
20.0,61.0,9.0,3.0,-6.0,-8.0,-8.0,-6.0,0.0,0.0,0.0,0.0,0.0,0.0,0.0,0.0,0
9.0,27.0,7.0,2.0,-8.0,-5.0,-10.0,-8.0,0.0,0.0,0.0,0.0,0.0,0.0,0.0,0.0,0
-2.0,2.0,20.0,8.0,0.0,-10.0,0.0,0.0,0.0,0.0,0.0,0.0,0.0,0.0,0.0,0.0,0
-2.0,-10.0,10.0,15.0,0.0,-2.0,-3.0,-5.0,0.0,0.0,0.0,0.0,0.0,0.0,0.0,0.0,0
-5.0,-43.0,-8.0,9.0,1.0,-2.0,-12.0,-6.0,0.0,0.0,0.0,0.0,0.0,0.0,0.0,0.0,0
-19.0,-50.0,-9.0,6.0,6.0,-7.0,-18.0,1.0,0.0,0.0,0.0,0.0,0.0,0.0,0.0,0.0,0
-20.0,-34.0,1.0,1.0,6.0,1.0,-8.0,9.0,0.0,0.0,0.0,0.0,0.0,0.0,0.0,0.0,0
-8.0,-27.0,-4.0,9.0,8.0,4.0,-21.0,9.0,0.0,0.0,0.0,0.0,0.0,0.0,0.0,0.0,0
4.0,-16.0,-28.0,-9.0,-1.0,-6.0,-17.0,7.0,0.0,0.0,0.0,0.0,0.0,0.0,0.0,0.0,0
6.0,5.0,-38.0,-33.0,-6.0,-1.0,-16.0,0.0,0.0,0.0,0.0,0.0,0.0,0.0,0.0,0.0,0
14.0,28.0,-24.0,-23.0,-13.0,-1.0,-6.0,-2.0,0.0,0.0,0.0,0.0,0.0,0.0,0.0,0.0,0
8.0,26.0,-4.0,-13.0,-12.0,2.0,1.0,1.0,0.0,0.0,0.0,0.0,0.0,0.0,0.0,0.0,0
1.0,23.0,14.0,-6.0,-12.0,-1.0,9.0,-2.0,0.0,0.0,0.0,0.0,0.0,0.0,0.0,0.0,0
-6.0,10.0,17.0,11.0,-2.0,5.0,15.0,-2.0,0.0,0.0,0.0,0.0,0.0,0.0,0.0,0.0,0
-8.0,6.0,32.0,11.0,-2.0,13.0,24.0,-9.0,0.0,0.0,0.0,0.0,0.0,0.0,0.0,0.0,0
-14.0,-6.0,30.0,11.0,-2.0,-4.0,9.0,-16.0,0.0,0.0,0.0,0.0,0.0,0.0,0.0,0.0,0
0.0,-8.0,22.0,11.0,6.0,-13.0,0.0,-8.0,0.0,0.0,0.0,0.0,0.0,0.0,0.0,0.0,0
-6.0,-23.0,1.0,-6.0,3.0,-8.0,-3.0,-2.0,0.0,0.0,0.0,0.0,0.0,0.0,0.0,0.0,0
-24.0,-24.0,-17.0,-13.0,-2.0,-2.0,4.0,-2.0,0.0,0.0,0.0,0.0,0.0,0.0,0.0,0.0,0
-34.0,-10.0,-19.0,-8.0,-3.0,6.0,8.0,3.0,0.0,0.0,0.0,0.0,0.0,0.0,0.0,0.0,0
-16.0,-3.0,-27.0,-11.0,-5.0,0.0,-3.0,-3.0,0.0,0.0,0.0,0.0,0.0,0.0,0.0,0.0,0
-2.0,8.0,-12.0,-11.0,2.0,-8.0,-3.0,-7.0,0.0,0.0,0.0,0.0,0.0,0.0,0.0,0.0,0
8.0,18.0,-1.0,-13.0,-3.0,-10.0,-3.0,-6.0,0.0,0.0,0.0,0.0,0.0,0.0,0.0,0.0,0
23.0,15.0,-11.0,-12.0,-10.0,-4.0,-7.0,-9.0,0.0,0.0,0.0,0.0,0.0,0.0,0.0,0.0,0
45.0,4.0,-13.0,-7.0,-13.0,-8.0,-13.0,3.0,0.0,0.0,0.0,0.0,0.0,0.0,0.0,0.0,0
29.0,-16.0,-14.0,-2.0,-14.0,-5.0,-17.0,-1.0,0.0,0.0,0.0,0.0,0.0,0.0,0.0,0.0,0
5.0,-28.0,-17.0,-1.0,-4.0,-5.0,-15.0,-3.0,0.0,0.0,0.0,0.0,0.0,0.0,0.0,0.0,0
11.0,-27.0,-10.0,3.0,8.0,-1.0,-22.0,0.0,0.0,0.0,0.0,0.0,0.0,0.0,0.0,0.0,0
-18.0,-22.0,-1.0,15.0,7.0,-7.0,-17.0,11.0,0.0,0.0,0.0,0.0,0.0,0.0,0.0,0.0,0
-52.0,-6.0,11.0,20.0,6.0,2.0,-11.0,1.0,0.0,0.0,0.0,0.0,0.0,0.0,0.0,0.0,0
-42.0,17.0,14.0,10.0,4.0,2.0,-9.0,-7.0,0.0,0.0,0.0,0.0,0.0,0.0,0.0,0.0,0
-7.0,22.0,18.0,9.0,8.0,4.0,2.0,3.0,0.0,0.0,0.0,0.0,0.0,0.0,0.0,0.0,0
7.0,14.0,11.0,3.0,0.0,3.0,9.0,9.0,0.0,0.0,0.0,0.0,0.0,0.0,0.0,0.0,0
14.0,2.0,9.0,2.0,-6.0,0.0,6.0,2.0,0.0,0.0,0.0,0.0,0.0,0.0,0.0,0.0,0
11.0,6.0,36.0,6.0,-6.0,7.0,20.0,-7.0,0.0,0.0,0.0,0.0,0.0,0.0,0.0,0.0,0
-3.0,-7.0,6.0,-11.0,-5.0,8.0,21.0,-10.0,0.0,0.0,0.0,0.0,0.0,0.0,0.0,0.0,0
-9.0,-16.0,-47.0,-35.0,-6.0,-9.0,4.0,-10.0,0.0,0.0,0.0,0.0,0.0,0.0,0.0,0.0,0
-10.0,-9.0,-45.0,-29.0,-13.0,-13.0,-3.0,-12.0,0.0,0.0,0.0,0.0,0.0,0.0,0.0,0.0,0
-19.0,-8.0,-30.0,-23.0,-8.0,-9.0,1.0,-14.0,0.0,0.0,0.0,0.0,0.0,0.0,0.0,0.0,0
-1.0,-4.0,-11.0,-15.0,-2.0,-5.0,2.0,-3.0,0.0,0.0,0.0,0.0,0.0,0.0,0.0,0.0,0
11.0,3.0,10.0,5.0,3.0,-6.0,4.0,5.0,0.0,0.0,0.0,0.0,0.0,0.0,0.0,0.0,0
-5.0,13.0,33.0,18.0,2.0,-9.0,0.0,2.0,0.0,0.0,0.0,0.0,0.0,0.0,0.0,0.0,0
-14.0,14.0,39.0,20.0,2.0,-2.0,-6.0,-7.0,0.0,0.0,0.0,0.0,0.0,0.0,0.0,0.0,0
-14.0,6.0,14.0,17.0,-3.0,-3.0,-9.0,-3.0,0.0,0.0,0.0,0.0,0.0,0.0,0.0,0.0,0
1.0,-4.0,-17.0,-6.0,-11.0,-10.0,-20.0,3.0,0.0,0.0,0.0,0.0,0.0,0.0,0.0,0.0,0
5.0,-13.0,-22.0,-14.0,-12.0,-6.0,-17.0,3.0,0.0,0.0,0.0,0.0,0.0,0.0,0.0,0.0,0
-12.0,-29.0,-28.0,-4.0,-8.0,1.0,-8.0,3.0,0.0,0.0,0.0,0.0,0.0,0.0,0.0,0.0,0
-10.0,-23.0,-24.0,-4.0,0.0,-4.0,-13.0,5.0,0.0,0.0,0.0,0.0,0.0,0.0,0.0,0.0,0
27.0,-8.0,-18.0,-2.0,4.0,1.0,-16.0,3.0,0.0,0.0,0.0,0.0,0.0,0.0,0.0,0.0,0
36.0,10.0,-8.0,-3.0,6.0,5.0,-14.0,-1.0,0.0,0.0,0.0,0.0,0.0,0.0,0.0,0.0,0
38.0,24.0,2.0,0.0,3.0,3.0,-8.0,-5.0,0.0,0.0,0.0,0.0,0.0,0.0,0.0,0.0,0
18.0,14.0,5.0,3.0,4.0,2.0,-6.0,5.0,0.0,0.0,0.0,0.0,0.0,0.0,0.0,0.0,0
-18.0,0.0,5.0,1.0,5.0,3.0,6.0,4.0,0.0,0.0,0.0,0.0,0.0,0.0,0.0,0.0,0
-25.0,-3.0,8.0,0.0,-5.0,5.0,20.0,-1.0,0.0,0.0,0.0,0.0,0.0,0.0,0.0,0.0,0
-34.0,-13.0,15.0,-4.0,-6.0,0.0,19.0,-7.0,0.0,0.0,0.0,0.0,0.0,0.0,0.0,0.0,0
-49.0,-34.0,-2.0,-14.0,-9.0,-9.0,19.0,-15.0,0.0,0.0,0.0,0.0,0.0,0.0,0.0,0.0,0
-49.0,-34.0,-18.0,-21.0,-14.0,-14.0,11.0,-16.0,0.0,0.0,0.0,0.0,0.0,0.0,0.0,0.0,0
-21.0,0.0,-9.0,-13.0,-14.0,-10.0,2.0,-13.0,0.0,0.0,0.0,0.0,0.0,0.0,0.0,0.0,0
-3.0,23.0,8.0,-3.0,-10.0,-4.0,-5.0,-10.0,0.0,0.0,0.0,0.0,0.0,0.0,0.0,0.0,0
3.0,27.0,29.0,14.0,-5.0,-1.0,-5.0,3.0,0.0,0.0,0.0,0.0,0.0,0.0,0.0,0.0,0
20.0,17.0,26.0,29.0,1.0,-1.0,-3.0,0.0,0.0,0.0,0.0,0.0,0.0,0.0,0.0,0.0,0
33.0,9.0,15.0,20.0,8.0,1.0,1.0,3.0,0.0,0.0,0.0,0.0,0.0,0.0,0.0,0.0,0
14.0,8.0,6.0,-5.0,8.0,-1.0,7.0,5.0,0.0,0.0,0.0,0.0,0.0,0.0,0.0,0.0,0
-4.0,-8.0,-16.0,-30.0,-4.0,-9.0,-4.0,-4.0,0.0,0.0,0.0,0.0,0.0,0.0,0.0,0.0,0
-1.0,-16.0,-53.0,-34.0,-13.0,0.0,-21.0,-13.0,0.0,0.0,0.0,0.0,0.0,0.0,0.0,0.0,0
9.0,-9.0,-53.0,-18.0,-4.0,-4.0,-17.0,-10.0,0.0,0.0,0.0,0.0,0.0,0.0,0.0,0.0,0
11.0,-18.0,-36.0,-4.0,6.0,-5.0,-6.0,2.0,0.0,0.0,0.0,0.0,0.0,0.0,0.0,0.0,0
20.0,-23.0,-17.0,-3.0,6.0,-4.0,-5.0,8.0,0.0,0.0,0.0,0.0,0.0,0.0,0.0,0.0,0
20.0,-7.0,7.0,13.0,1.0,-9.0,-24.0,8.0,0.0,0.0,0.0,0.0,0.0,0.0,0.0,0.0,0
0.0,12.0,25.0,24.0,0.0,6.0,-17.0,8.0,0.0,0.0,0.0,0.0,0.0,0.0,0.0,0.0,0
-14.0,-7.0,21.0,15.0,-7.0,10.0,-10.0,10.0,0.0,0.0,0.0,0.0,0.0,0.0,0.0,0.0,0
-17.0,-18.0,2.0,14.0,-2.0,4.0,-5.0,2.0,0.0,0.0,0.0,0.0,0.0,0.0,0.0,0.0,0
-21.0,0.0,18.0,7.0,1.0,-8.0,2.0,-9.0,0.0,0.0,0.0,0.0,0.0,0.0,0.0,0.0,0
-6.0,14.0,22.0,-6.0,-9.0,-2.0,7.0,-4.0,0.0,0.0,0.0,0.0,0.0,0.0,0.0,0.0,0
-32.0,2.0,17.0,-12.0,-14.0,4.0,22.0,-8.0,0.0,0.0,0.0,0.0,0.0,0.0,0.0,0.0,0
-56.0,-21.0,18.0,-12.0,-8.0,6.0,18.0,-15.0,0.0,0.0,0.0,0.0,0.0,0.0,0.0,0.0,0
-38.0,-4.0,12.0,3.0,-1.0,0.0,8.0,-8.0,0.0,0.0,0.0,0.0,0.0,0.0,0.0,0.0,0
1.0,29.0,-1.0,-4.0,5.0,0.0,4.0,-4.0,0.0,0.0,0.0,0.0,0.0,0.0,0.0,0.0,0
33.0,32.0,-43.0,-31.0,2.0,-1.0,2.0,-2.0,0.0,0.0,0.0,0.0,0.0,0.0,0.0,0.0,0
50.0,11.0,-42.0,-35.0,-8.0,-14.0,3.0,-7.0,0.0,0.0,0.0,0.0,0.0,0.0,0.0,0.0,0
59.0,2.0,-20.0,-17.0,-7.0,-14.0,-4.0,-3.0,0.0,0.0,0.0,0.0,0.0,0.0,0.0,0.0,0
35.0,-5.0,11.0,10.0,5.0,1.0,-4.0,-2.0,0.0,0.0,0.0,0.0,0.0,0.0,0.0,0.0,0
8.0,1.0,51.0,25.0,5.0,-2.0,-2.0,-5.0,0.0,0.0,0.0,0.0,0.0,0.0,0.0,0.0,0
-23.0,-27.0,16.0,7.0,-10.0,-7.0,-6.0,-2.0,0.0,0.0,0.0,0.0,0.0,0.0,0.0,0.0,0
-65.0,-80.0,-63.0,-15.0,-17.0,-8.0,-17.0,2.0,0.0,0.0,0.0,0.0,0.0,0.0,0.0,0.0,0
-61.0,-61.0,-71.0,-15.0,-11.0,-3.0,-16.0,5.0,0.0,0.0,0.0,0.0,0.0,0.0,0.0,0.0,0
-30.0,-11.0,-43.0,-8.0,2.0,0.0,-8.0,-1.0,0.0,0.0,0.0,0.0,0.0,0.0,0.0,0.0,0
0.0,21.0,-1.0,4.0,6.0,-5.0,-15.0,0.0,0.0,0.0,0.0,0.0,0.0,0.0,0.0,0.0,0
19.0,53.0,58.0,26.0,8.0,-2.0,-18.0,6.0,0.0,0.0,0.0,0.0,0.0,0.0,0.0,0.0,0
38.0,52.0,88.0,38.0,8.0,2.0,-11.0,6.0,0.0,0.0,0.0,0.0,0.0,0.0,0.0,0.0,0
47.0,43.0,57.0,25.0,0.0,2.0,-8.0,4.0,0.0,0.0,0.0,0.0,0.0,0.0,0.0,0.0,0
28.0,11.0,11.0,-4.0,-2.0,5.0,-6.0,-3.0,0.0,0.0,0.0,0.0,0.0,0.0,0.0,0.0,0
-5.0,-29.0,-33.0,-24.0,-3.0,3.0,1.0,-7.0,0.0,0.0,0.0,0.0,0.0,0.0,0.0,0.0,0
-11.0,-42.0,-44.0,-26.0,-2.0,2.0,14.0,-7.0,0.0,0.0,0.0,0.0,0.0,0.0,0.0,0.0,0
-9.0,-21.0,-40.0,-17.0,-7.0,5.0,25.0,-5.0,0.0,0.0,0.0,0.0,0.0,0.0,0.0,0.0,0
-11.0,5.0,-23.0,-18.0,-11.0,3.0,22.0,-11.0,0.0,0.0,0.0,0.0,0.0,0.0,0.0,0.0,0
-24.0,-4.0,-11.0,-18.0,-11.0,-10.0,7.0,-7.0,0.0,0.0,0.0,0.0,0.0,0.0,0.0,0.0,0
-48.0,-28.0,-5.0,-9.0,-3.0,-13.0,1.0,-9.0,0.0,0.0,0.0,0.0,0.0,0.0,0.0,0.0,0
-44.0,-26.0,1.0,-3.0,3.0,-10.0,5.0,-11.0,0.0,0.0,0.0,0.0,0.0,0.0,0.0,0.0,0
-21.0,-16.0,8.0,2.0,-2.0,-2.0,6.0,-9.0,0.0,0.0,0.0,0.0,0.0,0.0,0.0,0.0,0
13.0,9.0,7.0,-2.0,-4.0,-6.0,-7.0,3.0,0.0,0.0,0.0,0.0,0.0,0.0,0.0,0.0,0
35.0,23.0,13.0,8.0,0.0,-13.0,-10.0,7.0,0.0,0.0,0.0,0.0,0.0,0.0,0.0,0.0,0
23.0,25.0,26.0,15.0,2.0,3.0,-6.0,-3.0,0.0,0.0,0.0,0.0,0.0,0.0,0.0,0.0,0
16.0,13.0,18.0,11.0,3.0,9.0,-7.0,-2.0,0.0,0.0,0.0,0.0,0.0,0.0,0.0,0.0,0
17.0,6.0,-6.0,-3.0,-2.0,1.0,-10.0,2.0,0.0,0.0,0.0,0.0,0.0,0.0,0.0,0.0,0
14.0,1.0,-10.0,1.0,-10.0,-3.0,-11.0,-6.0,0.0,0.0,0.0,0.0,0.0,0.0,0.0,0.0,0
-1.0,-6.0,-10.0,3.0,-4.0,-11.0,-9.0,2.0,0.0,0.0,0.0,0.0,0.0,0.0,0.0,0.0,0
-28.0,-16.0,-24.0,-10.0,-1.0,-13.0,-13.0,2.0,0.0,0.0,0.0,0.0,0.0,0.0,0.0,0.0,0
-28.0,-34.0,-42.0,-26.0,-14.0,-6.0,-24.0,1.0,0.0,0.0,0.0,0.0,0.0,0.0,0.0,0.0,0
-7.0,-30.0,-33.0,-15.0,-9.0,0.0,-15.0,3.0,0.0,0.0,0.0,0.0,0.0,0.0,0.0,0.0,0
6.0,-23.0,-5.0,5.0,4.0,5.0,-10.0,8.0,0.0,0.0,0.0,0.0,0.0,0.0,0.0,0.0,0
16.0,5.0,26.0,13.0,17.0,6.0,-1.0,4.0,0.0,0.0,0.0,0.0,0.0,0.0,0.0,0.0,0
16.0,28.0,14.0,9.0,9.0,7.0,9.0,-1.0,0.0,0.0,0.0,0.0,0.0,0.0,0.0,0.0,0
6.0,17.0,-9.0,-4.0,-7.0,5.0,14.0,-3.0,0.0,0.0,0.0,0.0,0.0,0.0,0.0,0.0,0
-24.0,14.0,8.0,-8.0,-13.0,4.0,19.0,-10.0,0.0,0.0,0.0,0.0,0.0,0.0,0.0,0.0,0
-38.0,9.0,18.0,-12.0,-13.0,-2.0,22.0,-19.0,0.0,0.0,0.0,0.0,0.0,0.0,0.0,0.0,0
-29.0,1.0,14.0,-7.0,-8.0,-12.0,8.0,-12.0,0.0,0.0,0.0,0.0,0.0,0.0,0.0,0.0,0
-24.0,2.0,16.0,2.0,1.0,-6.0,5.0,-6.0,0.0,0.0,0.0,0.0,0.0,0.0,0.0,0.0,0
0.0,-5.0,8.0,-2.0,-3.0,-7.0,2.0,2.0,0.0,0.0,0.0,0.0,0.0,0.0,0.0,0.0,0
18.0,-8.0,6.0,-6.0,-2.0,-7.0,-3.0,2.0,0.0,0.0,0.0,0.0,0.0,0.0,0.0,0.0,0
34.0,-11.0,-11.0,-16.0,-3.0,-1.0,-8.0,-5.0,0.0,0.0,0.0,0.0,0.0,0.0,0.0,0.0,0
43.0,-6.0,-17.0,-17.0,-7.0,-3.0,-10.0,-9.0,0.0,0.0,0.0,0.0,0.0,0.0,0.0,0.0,0
18.0,-13.0,-22.0,-8.0,5.0,2.0,-3.0,-5.0,0.0,0.0,0.0,0.0,0.0,0.0,0.0,0.0,0
-29.0,-24.0,-26.0,-8.0,-1.0,-7.0,-6.0,-1.0,0.0,0.0,0.0,0.0,0.0,0.0,0.0,0.0,0
-50.0,-18.0,-15.0,2.0,0.0,-3.0,-11.0,8.0,0.0,0.0,0.0,0.0,0.0,0.0,0.0,0.0,0
-47.0,-7.0,3.0,13.0,-5.0,-2.0,-6.0,6.0,0.0,0.0,0.0,0.0,0.0,0.0,0.0,0.0,0
-25.0,8.0,13.0,7.0,-5.0,-4.0,-7.0,-5.0,0.0,0.0,0.0,0.0,0.0,0.0,0.0,0.0,0
-1.0,12.0,3.0,-3.0,-4.0,-3.0,-26.0,-8.0,0.0,0.0,0.0,0.0,0.0,0.0,0.0,0.0,0
28.0,10.0,-2.0,12.0,11.0,1.0,-23.0,3.0,0.0,0.0,0.0,0.0,0.0,0.0,0.0,0.0,0
35.0,10.0,-2.0,14.0,6.0,4.0,-11.0,6.0,0.0,0.0,0.0,0.0,0.0,0.0,0.0,0.0,0
33.0,0.0,-9.0,1.0,-5.0,4.0,-4.0,3.0,0.0,0.0,0.0,0.0,0.0,0.0,0.0,0.0,0
22.0,-5.0,-10.0,-8.0,-7.0,-1.0,-6.0,4.0,0.0,0.0,0.0,0.0,0.0,0.0,0.0,0.0,0
10.0,-6.0,-11.0,-9.0,-5.0,-1.0,1.0,1.0,0.0,0.0,0.0,0.0,0.0,0.0,0.0,0.0,0
-17.0,-8.0,-6.0,-20.0,-4.0,-1.0,15.0,-9.0,0.0,0.0,0.0,0.0,0.0,0.0,0.0,0.0,0
-29.0,-6.0,15.0,-14.0,0.0,1.0,20.0,-13.0,0.0,0.0,0.0,0.0,0.0,0.0,0.0,0.0,0
-15.0,-6.0,12.0,-4.0,-2.0,3.0,18.0,-9.0,0.0,0.0,0.0,0.0,0.0,0.0,0.0,0.0,0
-24.0,-1.0,-3.0,-15.0,-8.0,-2.0,10.0,-8.0,0.0,0.0,0.0,0.0,0.0,0.0,0.0,0.0,0
-24.0,4.0,3.0,-5.0,-3.0,-4.0,0.0,-8.0,0.0,0.0,0.0,0.0,0.0,0.0,0.0,0.0,0
-21.0,1.0,9.0,8.0,1.0,-5.0,-2.0,-14.0,0.0,0.0,0.0,0.0,0.0,0.0,0.0,0.0,0
-16.0,-1.0,8.0,8.0,3.0,-7.0,-3.0,-16.0,0.0,0.0,0.0,0.0,0.0,0.0,0.0,0.0,0
-7.0,16.0,27.0,10.0,6.0,-10.0,-10.0,-4.0,0.0,0.0,0.0,0.0,0.0,0.0,0.0,0.0,0
35.0,30.0,17.0,3.0,3.0,-7.0,-4.0,3.0,0.0,0.0,0.0,0.0,0.0,0.0,0.0,0.0,0
56.0,11.0,-6.0,-8.0,-5.0,3.0,4.0,2.0,0.0,0.0,0.0,0.0,0.0,0.0,0.0,0.0,0
22.0,-26.0,-17.0,-8.0,-10.0,5.0,2.0,4.0,0.0,0.0,0.0,0.0,0.0,0.0,0.0,0.0,0
-42.0,-51.0,-64.0,-16.0,-12.0,-5.0,-17.0,2.0,0.0,0.0,0.0,0.0,0.0,0.0,0.0,0.0,0
-67.0,-44.0,-66.0,-22.0,-6.0,-6.0,-15.0,1.0,0.0,0.0,0.0,0.0,0.0,0.0,0.0,0.0,0
-44.0,-19.0,-35.0,-16.0,-4.0,-1.0,-10.0,2.0,0.0,0.0,0.0,0.0,0.0,0.0,0.0,0.0,0
4.0,2.0,-12.0,-9.0,-7.0,-4.0,-17.0,3.0,0.0,0.0,0.0,0.0,0.0,0.0,0.0,0.0,0
50.0,19.0,21.0,12.0,-7.0,-6.0,-17.0,-1.0,0.0,0.0,0.0,0.0,0.0,0.0,0.0,0.0,0
44.0,19.0,43.0,26.0,3.0,2.0,-13.0,0.0,0.0,0.0,0.0,0.0,0.0,0.0,0.0,0.0,0
15.0,-3.0,38.0,17.0,6.0,2.0,-8.0,8.0,0.0,0.0,0.0,0.0,0.0,0.0,0.0,0.0,0
4.0,-8.0,24.0,13.0,6.0,1.0,3.0,10.0,0.0,0.0,0.0,0.0,0.0,0.0,0.0,0.0,0
-3.0,-7.0,17.0,9.0,3.0,1.0,6.0,-1.0,0.0,0.0,0.0,0.0,0.0,0.0,0.0,0.0,0
1.0,18.0,1.0,3.0,5.0,4.0,4.0,-7.0,0.0,0.0,0.0,0.0,0.0,0.0,0.0,0.0,0
-17.0,26.0,-9.0,-1.0,8.0,4.0,14.0,-13.0,0.0,0.0,0.0,0.0,0.0,0.0,0.0,0.0,0
-28.0,4.0,-18.0,-16.0,-1.0,0.0,16.0,-16.0,0.0,0.0,0.0,0.0,0.0,0.0,0.0,0.0,0
-40.0,-4.0,-26.0,-20.0,-10.0,-9.0,3.0,-15.0,0.0,0.0,0.0,0.0,0.0,0.0,0.0,0.0,0
-57.0,-7.0,-18.0,-23.0,-17.0,-12.0,-2.0,-20.0,0.0,0.0,0.0,0.0,0.0,0.0,0.0,0.0,0
6.0,8.0,2.0,-18.0,-13.0,-3.0,2.0,-11.0,0.0,0.0,0.0,0.0,0.0,0.0,0.0,0.0,0
38.0,19.0,19.0,-9.0,-8.0,-4.0,8.0,10.0,0.0,0.0,0.0,0.0,0.0,0.0,0.0,0.0,0
1.0,-3.0,18.0,7.0,-1.0,-7.0,2.0,12.0,0.0,0.0,0.0,0.0,0.0,0.0,0.0,0.0,0
5.0,-25.0,-4.0,6.0,6.0,0.0,-3.0,3.0,0.0,0.0,0.0,0.0,0.0,0.0,0.0,0.0,0
40.0,-3.0,-20.0,-2.0,4.0,4.0,-1.0,-1.0,0.0,0.0,0.0,0.0,0.0,0.0,0.0,0.0,0
21.0,14.0,-30.0,-11.0,-5.0,-2.0,-5.0,1.0,0.0,0.0,0.0,0.0,0.0,0.0,0.0,0.0,0
-30.0,-32.0,-30.0,-2.0,-4.0,-6.0,-13.0,-2.0,0.0,0.0,0.0,0.0,0.0,0.0,0.0,0.0,0
-25.0,-42.0,4.0,12.0,4.0,-7.0,-15.0,1.0,0.0,0.0,0.0,0.0,0.0,0.0,0.0,0.0,0
4.0,-14.0,42.0,27.0,2.0,0.0,-15.0,-5.0,0.0,0.0,0.0,0.0,0.0,0.0,0.0,0.0,0
1.0,2.0,20.0,18.0,-5.0,-5.0,-19.0,-8.0,0.0,0.0,0.0,0.0,0.0,0.0,0.0,0.0,0
-3.0,-12.0,-28.0,-20.0,-11.0,-12.0,-21.0,-2.0,0.0,0.0,0.0,0.0,0.0,0.0,0.0,0.0,0
6.0,-1.0,-39.0,-26.0,-11.0,-6.0,-15.0,2.0,0.0,0.0,0.0,0.0,0.0,0.0,0.0,0.0,0
17.0,21.0,-23.0,-8.0,0.0,-1.0,-4.0,4.0,0.0,0.0,0.0,0.0,0.0,0.0,0.0,0.0,0
21.0,24.0,-9.0,3.0,4.0,3.0,6.0,1.0,0.0,0.0,0.0,0.0,0.0,0.0,0.0,0.0,0
5.0,15.0,18.0,3.0,8.0,2.0,11.0,-2.0,0.0,0.0,0.0,0.0,0.0,0.0,0.0,0.0,0
-19.0,6.0,25.0,3.0,-3.0,2.0,14.0,-2.0,0.0,0.0,0.0,0.0,0.0,0.0,0.0,0.0,0
-29.0,0.0,19.0,4.0,-2.0,2.0,16.0,-5.0,0.0,0.0,0.0,0.0,0.0,0.0,0.0,0.0,0
-22.0,-1.0,13.0,0.0,4.0,3.0,19.0,-9.0,0.0,0.0,0.0,0.0,0.0,0.0,0.0,0.0,0
-44.0,-19.0,-10.0,-2.0,3.0,4.0,8.0,-6.0,0.0,0.0,0.0,0.0,0.0,0.0,0.0,0.0,0
-40.0,-43.0,-25.0,-10.0,0.0,-1.0,8.0,-4.0,0.0,0.0,0.0,0.0,0.0,0.0,0.0,0.0,0
-2.0,-30.0,-17.0,-6.0,-4.0,-7.0,5.0,-6.0,0.0,0.0,0.0,0.0,0.0,0.0,0.0,0.0,0
11.0,-3.0,-6.0,-6.0,-12.0,-14.0,-1.0,-9.0,0.0,0.0,0.0,0.0,0.0,0.0,0.0,0.0,0
14.0,20.0,3.0,-5.0,-14.0,-10.0,-15.0,-5.0,0.0,0.0,0.0,0.0,0.0,0.0,0.0,0.0,0
45.0,45.0,8.0,-2.0,-9.0,-7.0,-13.0,-8.0,0.0,0.0,0.0,0.0,0.0,0.0,0.0,0.0,0
72.0,37.0,10.0,7.0,1.0,-8.0,4.0,-6.0,0.0,0.0,0.0,0.0,0.0,0.0,0.0,0.0,0
49.0,-2.0,16.0,6.0,6.0,-1.0,1.0,-4.0,0.0,0.0,0.0,0.0,0.0,0.0,0.0,0.0,0
-8.0,-17.0,7.0,8.0,4.0,6.0,-9.0,6.0,0.0,0.0,0.0,0.0,0.0,0.0,0.0,0.0,0
-63.0,-23.0,-5.0,-5.0,0.0,2.0,-16.0,13.0,0.0,0.0,0.0,0.0,0.0,0.0,0.0,0.0,0
-71.0,-20.0,-15.0,-7.0,-4.0,-4.0,-14.0,-1.0,0.0,0.0,0.0,0.0,0.0,0.0,0.0,0.0,0
-57.0,-21.0,-18.0,-4.0,2.0,-10.0,-12.0,-7.0,0.0,0.0,0.0,0.0,0.0,0.0,0.0,0.0,0
-19.0,-34.0,-24.0,2.0,5.0,-1.0,-17.0,6.0,0.0,0.0,0.0,0.0,0.0,0.0,0.0,0.0,0
22.0,-15.0,-22.0,0.0,0.0,-1.0,-13.0,8.0,0.0,0.0,0.0,0.0,0.0,0.0,0.0,0.0,0
58.0,22.0,-5.0,-1.0,-13.0,0.0,-19.0,-5.0,0.0,0.0,0.0,0.0,0.0,0.0,0.0,0.0,0
46.0,21.0,-2.0,-5.0,-15.0,-5.0,-2.0,0.0,0.0,0.0,0.0,0.0,0.0,0.0,0.0,0.0,0
10.0,5.0,0.0,-7.0,-6.0,-3.0,8.0,0.0,0.0,0.0,0.0,0.0,0.0,0.0,0.0,0.0,0
-19.0,-12.0,-6.0,-21.0,-4.0,0.0,13.0,0.0,0.0,0.0,0.0,0.0,0.0,0.0,0.0,0.0,0
-25.0,-8.0,-12.0,-39.0,-11.0,0.0,14.0,-6.0,0.0,0.0,0.0,0.0,0.0,0.0,0.0,0.0,0
-8.0,2.0,-5.0,-27.0,-11.0,-2.0,12.0,-13.0,0.0,0.0,0.0,0.0,0.0,0.0,0.0,0.0,0
-1.0,3.0,-5.0,-2.0,2.0,-7.0,6.0,-14.0,0.0,0.0,0.0,0.0,0.0,0.0,0.0,0.0,0
-9.0,-3.0,1.0,18.0,8.0,-3.0,5.0,-8.0,0.0,0.0,0.0,0.0,0.0,0.0,0.0,0.0,0
-15.0,11.0,15.0,28.0,8.0,7.0,7.0,-2.0,0.0,0.0,0.0,0.0,0.0,0.0,0.0,0.0,0
-17.0,20.0,30.0,30.0,13.0,7.0,9.0,-2.0,0.0,0.0,0.0,0.0,0.0,0.0,0.0,0.0,0
-12.0,-10.0,25.0,25.0,5.0,7.0,-2.0,1.0,0.0,0.0,0.0,0.0,0.0,0.0,0.0,0.0,0
-3.0,-27.0,25.0,13.0,3.0,-3.0,-8.0,0.0,0.0,0.0,0.0,0.0,0.0,0.0,0.0,0.0,0
-8.0,-6.0,26.0,10.0,2.0,-6.0,0.0,3.0,0.0,0.0,0.0,0.0,0.0,0.0,0.0,0.0,0
1.0,2.0,5.0,-13.0,-8.0,-6.0,-4.0,2.0,0.0,0.0,0.0,0.0,0.0,0.0,0.0,0.0,0
24.0,5.0,-21.0,-29.0,-18.0,-7.0,-15.0,-4.0,0.0,0.0,0.0,0.0,0.0,0.0,0.0,0.0,0
24.0,8.0,-49.0,-33.0,-16.0,-5.0,-20.0,-10.0,0.0,0.0,0.0,0.0,0.0,0.0,0.0,0.0,0
14.0,5.0,-66.0,-32.0,-17.0,-12.0,-18.0,-8.0,0.0,0.0,0.0,0.0,0.0,0.0,0.0,0.0,0
5.0,-10.0,-49.0,-16.0,-7.0,-10.0,-19.0,-3.0,0.0,0.0,0.0,0.0,0.0,0.0,0.0,0.0,0
-6.0,-36.0,-14.0,13.0,0.0,-1.0,-19.0,7.0,0.0,0.0,0.0,0.0,0.0,0.0,0.0,0.0,0
-16.0,-21.0,9.0,21.0,-3.0,3.0,-10.0,5.0,0.0,0.0,0.0,0.0,0.0,0.0,0.0,0.0,0
-16.0,1.0,21.0,17.0,-5.0,-2.0,-3.0,5.0,0.0,0.0,0.0,0.0,0.0,0.0,0.0,0.0,0
4.0,18.0,44.0,25.0,4.0,6.0,-5.0,8.0,0.0,0.0,0.0,0.0,0.0,0.0,0.0,0.0,0
12.0,20.0,31.0,11.0,16.0,9.0,8.0,-2.0,0.0,0.0,0.0,0.0,0.0,0.0,0.0,0.0,0
-9.0,0.0,-18.0,-19.0,9.0,5.0,16.0,-6.0,0.0,0.0,0.0,0.0,0.0,0.0,0.0,0.0,0
-8.0,-1.0,-20.0,-13.0,-4.0,1.0,22.0,-4.0,0.0,0.0,0.0,0.0,0.0,0.0,0.0,0.0,0
-6.0,2.0,-4.0,-4.0,-6.0,-2.0,19.0,-10.0,0.0,0.0,0.0,0.0,0.0,0.0,0.0,0.0,0
-18.0,-17.0,1.0,-8.0,-7.0,-6.0,6.0,-7.0,0.0,0.0,0.0,0.0,0.0,0.0,0.0,0.0,0
-28.0,-9.0,14.0,-5.0,-6.0,-7.0,2.0,-11.0,0.0,0.0,0.0,0.0,0.0,0.0,0.0,0.0,0
-24.0,3.0,-4.0,-18.0,-11.0,-2.0,5.0,-10.0,0.0,0.0,0.0,0.0,0.0,0.0,0.0,0.0,0
-5.0,5.0,0.0,-20.0,-17.0,-3.0,-5.0,-9.0,0.0,0.0,0.0,0.0,0.0,0.0,0.0,0.0,0
1.0,-16.0,2.0,-15.0,-14.0,-12.0,-11.0,-6.0,0.0,0.0,0.0,0.0,0.0,0.0,0.0,0.0,0
6.0,-27.0,-5.0,-7.0,-13.0,-9.0,-10.0,-5.0,0.0,0.0,0.0,0.0,0.0,0.0,0.0,0.0,0
1.0,-10.0,-17.0,-2.0,-4.0,-3.0,3.0,-6.0,0.0,0.0,0.0,0.0,0.0,0.0,0.0,0.0,0
-6.0,3.0,-9.0,16.0,12.0,-6.0,-1.0,-1.0,0.0,0.0,0.0,0.0,0.0,0.0,0.0,0.0,0
22.0,9.0,1.0,22.0,7.0,-8.0,-15.0,2.0,0.0,0.0,0.0,0.0,0.0,0.0,0.0,0.0,0
39.0,13.0,13.0,24.0,11.0,1.0,-12.0,11.0,0.0,0.0,0.0,0.0,0.0,0.0,0.0,0.0,0
19.0,18.0,11.0,9.0,8.0,9.0,-9.0,5.0,0.0,0.0,0.0,0.0,0.0,0.0,0.0,0.0,0
-8.0,4.0,-11.0,-3.0,-2.0,-6.0,-18.0,2.0,0.0,0.0,0.0,0.0,0.0,0.0,0.0,0.0,0
-16.0,-10.0,-21.0,-15.0,-4.0,-8.0,-21.0,1.0,0.0,0.0,0.0,0.0,0.0,0.0,0.0,0.0,0
-12.0,-9.0,-17.0,-15.0,-5.0,-3.0,-11.0,-4.0,0.0,0.0,0.0,0.0,0.0,0.0,0.0,0.0,0
0.0,-13.0,-29.0,-23.0,-10.0,-3.0,-18.0,-6.0,0.0,0.0,0.0,0.0,0.0,0.0,0.0,0.0,0
-1.0,-23.0,-33.0,-23.0,-15.0,3.0,-4.0,0.0,0.0,0.0,0.0,0.0,0.0,0.0,0.0,0.0,0
-18.0,-13.0,-17.0,-15.0,-7.0,-1.0,11.0,1.0,0.0,0.0,0.0,0.0,0.0,0.0,0.0,0.0,0
-13.0,-4.0,11.0,-3.0,-3.0,-7.0,14.0,-2.0,0.0,0.0,0.0,0.0,0.0,0.0,0.0,0.0,0
-3.0,9.0,45.0,18.0,4.0,7.0,24.0,-8.0,0.0,0.0,0.0,0.0,0.0,0.0,0.0,0.0,0
3.0,26.0,56.0,26.0,14.0,13.0,24.0,-6.0,0.0,0.0,0.0,0.0,0.0,0.0,0.0,0.0,0
11.0,26.0,24.0,9.0,6.0,5.0,17.0,-6.0,0.0,0.0,0.0,0.0,0.0,0.0,0.0,0.0,0
-6.0,9.0,8.0,-3.0,-9.0,-4.0,2.0,-3.0,0.0,0.0,0.0,0.0,0.0,0.0,0.0,0.0,0
-16.0,-10.0,4.0,-2.0,-9.0,-7.0,-8.0,-11.0,0.0,0.0,0.0,0.0,0.0,0.0,0.0,0.0,0
-2.0,-18.0,-21.0,-6.0,-11.0,-11.0,-8.0,-10.0,0.0,0.0,0.0,0.0,0.0,0.0,0.0,0.0,0
-19.0,-24.0,-41.0,-11.0,-9.0,-13.0,-11.0,-4.0,0.0,0.0,0.0,0.0,0.0,0.0,0.0,0.0,0
-36.0,-24.0,-24.0,-10.0,-1.0,-7.0,-9.0,-2.0,0.0,0.0,0.0,0.0,0.0,0.0,0.0,0.0,0
-26.0,-17.0,0.0,-1.0,-2.0,-1.0,1.0,1.0,0.0,0.0,0.0,0.0,0.0,0.0,0.0,0.0,0
2.0,-8.0,6.0,9.0,1.0,-1.0,4.0,0.0,0.0,0.0,0.0,0.0,0.0,0.0,0.0,0.0,0
29.0,5.0,3.0,7.0,0.0,-4.0,-9.0,3.0,0.0,0.0,0.0,0.0,0.0,0.0,0.0,0.0,0
52.0,22.0,-11.0,-11.0,1.0,-5.0,-20.0,-5.0,0.0,0.0,0.0,0.0,0.0,0.0,0.0,0.0,0
58.0,37.0,-20.0,-15.0,-4.0,-8.0,-14.0,-5.0,0.0,0.0,0.0,0.0,0.0,0.0,0.0,0.0,0
39.0,24.0,-23.0,-16.0,-8.0,1.0,-23.0,-4.0,0.0,0.0,0.0,0.0,0.0,0.0,0.0,0.0,0
23.0,6.0,-11.0,-11.0,-12.0,6.0,-23.0,1.0,0.0,0.0,0.0,0.0,0.0,0.0,0.0,0.0,0
-11.0,1.0,1.0,-5.0,-3.0,-5.0,-10.0,5.0,0.0,0.0,0.0,0.0,0.0,0.0,0.0,0.0,0
-47.0,-5.0,3.0,-6.0,-7.0,-4.0,-9.0,-1.0,0.0,0.0,0.0,0.0,0.0,0.0,0.0,0.0,0
-63.0,-41.0,-6.0,0.0,-12.0,2.0,-5.0,-5.0,0.0,0.0,0.0,0.0,0.0,0.0,0.0,0.0,0
-85.0,-64.0,16.0,18.0,1.0,3.0,16.0,5.0,0.0,0.0,0.0,0.0,0.0,0.0,0.0,0.0,0
-62.0,-60.0,12.0,21.0,8.0,3.0,27.0,8.0,0.0,0.0,0.0,0.0,0.0,0.0,0.0,0.0,0
-15.0,-31.0,-11.0,3.0,2.0,5.0,27.0,2.0,0.0,0.0,0.0,0.0,0.0,0.0,0.0,0.0,0
27.0,11.0,-20.0,-13.0,-3.0,1.0,18.0,-4.0,0.0,0.0,0.0,0.0,0.0,0.0,0.0,0.0,0
65.0,55.0,-7.0,-26.0,-1.0,-6.0,3.0,-8.0,0.0,0.0,0.0,0.0,0.0,0.0,0.0,0.0,0
58.0,61.0,8.0,-19.0,0.0,-7.0,-2.0,-16.0,0.0,0.0,0.0,0.0,0.0,0.0,0.0,0.0,0
20.0,33.0,13.0,-7.0,-3.0,-8.0,-8.0,-12.0,0.0,0.0,0.0,0.0,0.0,0.0,0.0,0.0,0
1.0,23.0,30.0,17.0,5.0,-9.0,-8.0,-9.0,0.0,0.0,0.0,0.0,0.0,0.0,0.0,0.0,0
-6.0,2.0,23.0,17.0,3.0,0.0,-4.0,-5.0,0.0,0.0,0.0,0.0,0.0,0.0,0.0,0.0,0
-12.0,-19.0,-7.0,5.0,-7.0,0.0,-6.0,-12.0,0.0,0.0,0.0,0.0,0.0,0.0,0.0,0.0,0
-19.0,-19.0,-10.0,0.0,-3.0,-2.0,0.0,-2.0,0.0,0.0,0.0,0.0,0.0,0.0,0.0,0.0,0
-37.0,-7.0,20.0,15.0,8.0,5.0,1.0,3.0,0.0,0.0,0.0,0.0,0.0,0.0,0.0,0.0,0
-31.0,-16.0,-1.0,-3.0,-5.0,5.0,-11.0,0.0,0.0,0.0,0.0,0.0,0.0,0.0,0.0,0.0,0
-12.0,-33.0,-48.0,-36.0,-24.0,-6.0,-13.0,-9.0,0.0,0.0,0.0,0.0,0.0,0.0,0.0,0.0,0
-4.0,-38.0,-61.0,-36.0,-20.0,-15.0,-11.0,-5.0,0.0,0.0,0.0,0.0,0.0,0.0,0.0,0.0,0
-4.0,-20.0,-38.0,-14.0,-9.0,-14.0,-23.0,4.0,0.0,0.0,0.0,0.0,0.0,0.0,0.0,0.0,0
39.0,1.0,-8.0,1.0,1.0,-10.0,-25.0,7.0,0.0,0.0,0.0,0.0,0.0,0.0,0.0,0.0,0
60.0,17.0,14.0,12.0,2.0,-8.0,-11.0,9.0,0.0,0.0,0.0,0.0,0.0,0.0,0.0,0.0,0
47.0,17.0,19.0,16.0,7.0,0.0,-4.0,10.0,0.0,0.0,0.0,0.0,0.0,0.0,0.0,0.0,0
20.0,12.0,4.0,13.0,3.0,6.0,4.0,3.0,0.0,0.0,0.0,0.0,0.0,0.0,0.0,0.0,0
-2.0,11.0,3.0,12.0,5.0,9.0,8.0,-4.0,0.0,0.0,0.0,0.0,0.0,0.0,0.0,0.0,0
-18.0,18.0,10.0,6.0,7.0,11.0,9.0,-4.0,0.0,0.0,0.0,0.0,0.0,0.0,0.0,0.0,0
-38.0,19.0,19.0,-2.0,-2.0,7.0,11.0,-10.0,0.0,0.0,0.0,0.0,0.0,0.0,0.0,0.0,0
-49.0,-9.0,-1.0,-17.0,-6.0,4.0,17.0,-20.0,0.0,0.0,0.0,0.0,0.0,0.0,0.0,0.0,0
-75.0,-32.0,-14.0,-25.0,-8.0,-4.0,13.0,-16.0,0.0,0.0,0.0,0.0,0.0,0.0,0.0,0.0,0
-69.0,-23.0,-8.0,-25.0,-13.0,-8.0,2.0,-4.0,0.0,0.0,0.0,0.0,0.0,0.0,0.0,0.0,0
-37.0,-11.0,9.0,-8.0,-8.0,-13.0,4.0,0.0,0.0,0.0,0.0,0.0,0.0,0.0,0.0,0.0,0
2.0,-9.0,21.0,8.0,-8.0,-10.0,6.0,0.0,0.0,0.0,0.0,0.0,0.0,0.0,0.0,0.0,0
45.0,-9.0,13.0,9.0,-7.0,-8.0,-6.0,1.0,0.0,0.0,0.0,0.0,0.0,0.0,0.0,0.0,0
69.0,7.0,6.0,21.0,7.0,6.0,-9.0,-4.0,0.0,0.0,0.0,0.0,0.0,0.0,0.0,0.0,0
51.0,6.0,-17.0,5.0,8.0,3.0,-2.0,-5.0,0.0,0.0,0.0,0.0,0.0,0.0,0.0,0.0,0
31.0,20.0,-36.0,-13.0,3.0,-5.0,-6.0,1.0,0.0,0.0,0.0,0.0,0.0,0.0,0.0,0.0,0
28.0,26.0,-32.0,-13.0,-2.0,-10.0,-18.0,-1.0,0.0,0.0,0.0,0.0,0.0,0.0,0.0,0.0,0
6.0,19.0,-22.0,-8.0,-6.0,-14.0,-19.0,-5.0,0.0,0.0,0.0,0.0,0.0,0.0,0.0,0.0,0
-25.0,1.0,4.0,5.0,-2.0,-2.0,-14.0,-8.0,0.0,0.0,0.0,0.0,0.0,0.0,0.0,0.0,0
-26.0,-20.0,8.0,5.0,5.0,5.0,-11.0,3.0,0.0,0.0,0.0,0.0,0.0,0.0,0.0,0.0,0
-13.0,-23.0,-7.0,-8.0,1.0,-2.0,-17.0,10.0,0.0,0.0,0.0,0.0,0.0,0.0,0.0,0.0,0
-1.0,-5.0,4.0,1.0,-4.0,-1.0,-13.0,-1.0,0.0,0.0,0.0,0.0,0.0,0.0,0.0,0.0,0
-27.0,-26.0,5.0,-6.0,-10.0,-2.0,-8.0,1.0,0.0,0.0,0.0,0.0,0.0,0.0,0.0,0.0,0
-65.0,-47.0,-2.0,-12.0,-5.0,5.0,8.0,5.0,0.0,0.0,0.0,0.0,0.0,0.0,0.0,0.0,0
-43.0,-17.0,14.0,-6.0,1.0,5.0,15.0,1.0,0.0,0.0,0.0,0.0,0.0,0.0,0.0,0.0,0
-5.0,7.0,9.0,1.0,-6.0,4.0,11.0,4.0,0.0,0.0,0.0,0.0,0.0,0.0,0.0,0.0,0
21.0,6.0,-23.0,-17.0,-10.0,-1.0,13.0,2.0,0.0,0.0,0.0,0.0,0.0,0.0,0.0,0.0,0
45.0,10.0,-32.0,-20.0,-5.0,1.0,21.0,-5.0,0.0,0.0,0.0,0.0,0.0,0.0,0.0,0.0,0
41.0,19.0,-17.0,0.0,1.0,-9.0,10.0,-11.0,0.0,0.0,0.0,0.0,0.0,0.0,0.0,0.0,0
18.0,19.0,5.0,16.0,2.0,-19.0,-1.0,-17.0,0.0,0.0,0.0,0.0,0.0,0.0,0.0,0.0,0
-2.0,18.0,22.0,20.0,2.0,-12.0,-7.0,-13.0,0.0,0.0,0.0,0.0,0.0,0.0,0.0,0.0,0
-14.0,7.0,27.0,13.0,7.0,0.0,-3.0,-3.0,0.0,0.0,0.0,0.0,0.0,0.0,0.0,0.0,0
-22.0,6.0,24.0,5.0,8.0,4.0,-1.0,-5.0,0.0,0.0,0.0,0.0,0.0,0.0,0.0,0.0,0
-22.0,-3.0,9.0,-6.0,-5.0,0.0,-5.0,-12.0,0.0,0.0,0.0,0.0,0.0,0.0,0.0,0.0,0
0.0,-11.0,9.0,-12.0,-14.0,-2.0,-6.0,-4.0,0.0,0.0,0.0,0.0,0.0,0.0,0.0,0.0,0
-2.0,-12.0,-4.0,-20.0,-15.0,-3.0,-5.0,-3.0,0.0,0.0,0.0,0.0,0.0,0.0,0.0,0.0,0
7.0,-12.0,-12.0,-12.0,-11.0,-8.0,-13.0,3.0,0.0,0.0,0.0,0.0,0.0,0.0,0.0,0.0,0
2.0,-7.0,-16.0,2.0,-5.0,-4.0,-15.0,13.0,0.0,0.0,0.0,0.0,0.0,0.0,0.0,0.0,0
-18.0,-17.0,-34.0,0.0,6.0,-1.0,-9.0,6.0,0.0,0.0,0.0,0.0,0.0,0.0,0.0,0.0,0
-9.0,-15.0,-41.0,-6.0,0.0,-9.0,-15.0,0.0,0.0,0.0,0.0,0.0,0.0,0.0,0.0,0.0,0
9.0,-14.0,-35.0,-1.0,-3.0,-8.0,-20.0,5.0,0.0,0.0,0.0,0.0,0.0,0.0,0.0,0.0,0
-1.0,-22.0,-14.0,0.0,5.0,-1.0,-10.0,4.0,0.0,0.0,0.0,0.0,0.0,0.0,0.0,0.0,0
-7.0,-4.0,8.0,2.0,6.0,9.0,-6.0,-7.0,0.0,0.0,0.0,0.0,0.0,0.0,0.0,0.0,0
21.0,25.0,14.0,2.0,-1.0,11.0,3.0,-5.0,0.0,0.0,0.0,0.0,0.0,0.0,0.0,0.0,0
37.0,32.0,10.0,-17.0,-5.0,2.0,8.0,-3.0,0.0,0.0,0.0,0.0,0.0,0.0,0.0,0.0,0
20.0,11.0,6.0,-14.0,-8.0,2.0,7.0,5.0,0.0,0.0,0.0,0.0,0.0,0.0,0.0,0.0,0
-24.0,2.0,8.0,-6.0,-8.0,-2.0,19.0,-2.0,0.0,0.0,0.0,0.0,0.0,0.0,0.0,0.0,0
-31.0,8.0,12.0,-3.0,-1.0,1.0,21.0,-7.0,0.0,0.0,0.0,0.0,0.0,0.0,0.0,0.0,0
-18.0,-5.0,1.0,4.0,2.0,5.0,7.0,-12.0,0.0,0.0,0.0,0.0,0.0,0.0,0.0,0.0,0
-14.0,-22.0,-5.0,8.0,-3.0,-10.0,-6.0,-16.0,0.0,0.0,0.0,0.0,0.0,0.0,0.0,0.0,0
-43.0,-43.0,6.0,16.0,5.0,-7.0,1.0,-4.0,0.0,0.0,0.0,0.0,0.0,0.0,0.0,0.0,0
-50.0,-44.0,4.0,3.0,-1.0,-11.0,-1.0,3.0,0.0,0.0,0.0,0.0,0.0,0.0,0.0,0.0,0
-21.0,-21.0,2.0,-12.0,-9.0,-8.0,-4.0,3.0,0.0,0.0,0.0,0.0,0.0,0.0,0.0,0.0,0
23.0,24.0,5.0,-11.0,4.0,-2.0,-3.0,-6.0,0.0,0.0,0.0,0.0,0.0,0.0,0.0,0.0,0
49.0,55.0,6.0,0.0,7.0,3.0,-4.0,-8.0,0.0,0.0,0.0,0.0,0.0,0.0,0.0,0.0,0
44.0,56.0,9.0,-1.0,-2.0,0.0,-2.0,-2.0,0.0,0.0,0.0,0.0,0.0,0.0,0.0,0.0,0
31.0,32.0,-7.0,-5.0,-13.0,-14.0,-19.0,1.0,0.0,0.0,0.0,0.0,0.0,0.0,0.0,0.0,0
3.0,-10.0,-17.0,-7.0,-8.0,-14.0,-23.0,6.0,0.0,0.0,0.0,0.0,0.0,0.0,0.0,0.0,0
-16.0,-33.0,-8.0,-2.0,-3.0,-13.0,-10.0,1.0,0.0,0.0,0.0,0.0,0.0,0.0,0.0,0.0,0
-4.0,-30.0,-22.0,-1.0,6.0,-4.0,-14.0,0.0,0.0,0.0,0.0,0.0,0.0,0.0,0.0,0.0,0
-3.0,-36.0,-39.0,-8.0,-4.0,8.0,-18.0,7.0,0.0,0.0,0.0,0.0,0.0,0.0,0.0,0.0,0
-15.0,-50.0,-41.0,-10.0,1.0,10.0,-10.0,4.0,0.0,0.0,0.0,0.0,0.0,0.0,0.0,0.0,0
-12.0,-28.0,-18.0,-2.0,-5.0,0.0,-3.0,-1.0,0.0,0.0,0.0,0.0,0.0,0.0,0.0,0.0,0
2.0,3.0,16.0,7.0,1.0,0.0,6.0,-1.0,0.0,0.0,0.0,0.0,0.0,0.0,0.0,0.0,0
7.0,25.0,28.0,3.0,3.0,4.0,14.0,4.0,0.0,0.0,0.0,0.0,0.0,0.0,0.0,0.0,0
2.0,28.0,24.0,0.0,-4.0,7.0,13.0,-2.0,0.0,0.0,0.0,0.0,0.0,0.0,0.0,0.0,0
-25.0,13.0,35.0,-3.0,-4.0,-1.0,8.0,-2.0,0.0,0.0,0.0,0.0,0.0,0.0,0.0,0.0,0
-32.0,8.0,27.0,-1.0,3.0,-1.0,17.0,-10.0,0.0,0.0,0.0,0.0,0.0,0.0,0.0,0.0,0
-25.0,3.0,4.0,-6.0,0.0,-5.0,14.0,-12.0,0.0,0.0,0.0,0.0,0.0,0.0,0.0,0.0,0
0.0,5.0,-21.0,-24.0,-14.0,-9.0,4.0,-7.0,0.0,0.0,0.0,0.0,0.0,0.0,0.0,0.0,0
28.0,9.0,-24.0,-18.0,-11.0,-4.0,-4.0,-6.0,0.0,0.0,0.0,0.0,0.0,0.0,0.0,0.0,0
22.0,-8.0,-31.0,-9.0,-11.0,-5.0,-10.0,-4.0,0.0,0.0,0.0,0.0,0.0,0.0,0.0,0.0,0
11.0,-12.0,-22.0,-8.0,-2.0,-9.0,-3.0,-14.0,0.0,0.0,0.0,0.0,0.0,0.0,0.0,0.0,0
6.0,-5.0,3.0,9.0,-1.0,-2.0,-6.0,-4.0,0.0,0.0,0.0,0.0,0.0,0.0,0.0,0.0,0
-18.0,-3.0,29.0,22.0,-1.0,-1.0,-2.0,5.0,0.0,0.0,0.0,0.0,0.0,0.0,0.0,0.0,0
-49.0,-17.0,25.0,13.0,8.0,5.0,-2.0,4.0,0.0,0.0,0.0,0.0,0.0,0.0,0.0,0.0,0
-38.0,-30.0,13.0,9.0,4.0,-4.0,-18.0,-5.0,0.0,0.0,0.0,0.0,0.0,0.0,0.0,0.0,0
5.0,-15.0,-6.0,-8.0,-4.0,-3.0,-14.0,-8.0,0.0,0.0,0.0,0.0,0.0,0.0,0.0,0.0,0
32.0,-5.0,-25.0,-21.0,-8.0,-7.0,-3.0,-1.0,0.0,0.0,0.0,0.0,0.0,0.0,0.0,0.0,0
44.0,5.0,-36.0,-17.0,-3.0,-10.0,-15.0,13.0,0.0,0.0,0.0,0.0,0.0,0.0,0.0,0.0,0
34.0,15.0,-24.0,-5.0,2.0,0.0,-18.0,9.0,0.0,0.0,0.0,0.0,0.0,0.0,0.0,0.0,0
8.0,13.0,-8.0,2.0,8.0,1.0,-15.0,4.0,0.0,0.0,0.0,0.0,0.0,0.0,0.0,0.0,0
-12.0,-11.0,0.0,4.0,-1.0,1.0,-7.0,5.0,0.0,0.0,0.0,0.0,0.0,0.0,0.0,0.0,0
-18.0,-21.0,15.0,-1.0,-1.0,6.0,0.0,-4.0,0.0,0.0,0.0,0.0,0.0,0.0,0.0,0.0,0
-15.0,6.0,39.0,15.0,0.0,4.0,6.0,-10.0,0.0,0.0,0.0,0.0,0.0,0.0,0.0,0.0,0
-4.0,17.0,6.0,15.0,-3.0,4.0,10.0,-6.0,0.0,0.0,0.0,0.0,0.0,0.0,0.0,0.0,0
-12.0,2.0,-44.0,-14.0,-8.0,2.0,9.0,-7.0,0.0,0.0,0.0,0.0,0.0,0.0,0.0,0.0,0
-26.0,-28.0,-51.0,-31.0,-12.0,-6.0,16.0,-9.0,0.0,0.0,0.0,0.0,0.0,0.0,0.0,0.0,0
-18.0,-38.0,-18.0,-21.0,-6.0,-9.0,11.0,-7.0,0.0,0.0,0.0,0.0,0.0,0.0,0.0,0.0,0
-8.0,-23.0,14.0,-1.0,-2.0,-4.0,4.0,-5.0,0.0,0.0,0.0,0.0,0.0,0.0,0.0,0.0,0
4.0,21.0,47.0,12.0,5.0,-3.0,6.0,-9.0,0.0,0.0,0.0,0.0,0.0,0.0,0.0,0.0,0
-2.0,39.0,56.0,24.0,6.0,-4.0,-3.0,-6.0,0.0,0.0,0.0,0.0,0.0,0.0,0.0,0.0,0
-23.0,23.0,47.0,21.0,7.0,-7.0,-6.0,-4.0,0.0,0.0,0.0,0.0,0.0,0.0,0.0,0.0,0
-11.0,12.0,13.0,-3.0,-4.0,-1.0,-4.0,-5.0,0.0,0.0,0.0,0.0,0.0,0.0,0.0,0.0,0
17.0,1.0,-22.0,-29.0,-9.0,-7.0,-9.0,-5.0,0.0,0.0,0.0,0.0,0.0,0.0,0.0,0.0,0
17.0,4.0,-35.0,-31.0,-18.0,-8.0,-6.0,1.0,0.0,0.0,0.0,0.0,0.0,0.0,0.0,0.0,0
34.0,5.0,-41.0,-26.0,-16.0,-6.0,-11.0,2.0,0.0,0.0,0.0,0.0,0.0,0.0,0.0,0.0,0
23.0,-8.0,-34.0,-13.0,-3.0,-2.0,-14.0,5.0,0.0,0.0,0.0,0.0,0.0,0.0,0.0,0.0,0
-9.0,-21.0,-43.0,-16.0,1.0,4.0,-6.0,2.0,0.0,0.0,0.0,0.0,0.0,0.0,0.0,0.0,0
-33.0,-36.0,-41.0,-14.0,-8.0,-2.0,-11.0,0.0,0.0,0.0,0.0,0.0,0.0,0.0,0.0,0.0,0
-19.0,-22.0,-20.0,7.0,0.0,-2.0,-23.0,6.0,0.0,0.0,0.0,0.0,0.0,0.0,0.0,0.0,0
20.0,12.0,15.0,25.0,6.0,-3.0,-14.0,4.0,0.0,0.0,0.0,0.0,0.0,0.0,0.0,0.0,0
49.0,8.0,29.0,31.0,13.0,2.0,-12.0,0.0,0.0,0.0,0.0,0.0,0.0,0.0,0.0,0.0,0
21.0,-2.0,17.0,32.0,9.0,2.0,-1.0,1.0,0.0,0.0,0.0,0.0,0.0,0.0,0.0,0.0,0
-51.0,-28.0,14.0,26.0,1.0,0.0,13.0,1.0,0.0,0.0,0.0,0.0,0.0,0.0,0.0,0.0,0
-76.0,-48.0,5.0,9.0,3.0,7.0,11.0,4.0,0.0,0.0,0.0,0.0,0.0,0.0,0.0,0.0,0
-47.0,-20.0,-1.0,-12.0,5.0,9.0,20.0,-12.0,0.0,0.0,0.0,0.0,0.0,0.0,0.0,0.0,0
-10.0,26.0,18.0,-13.0,4.0,8.0,25.0,-9.0,0.0,0.0,0.0,0.0,0.0,0.0,0.0,0.0,0
15.0,36.0,16.0,-22.0,-12.0,-9.0,5.0,-10.0,0.0,0.0,0.0,0.0,0.0,0.0,0.0,0.0,0
26.0,29.0,14.0,-20.0,-20.0,-24.0,-6.0,-14.0,0.0,0.0,0.0,0.0,0.0,0.0,0.0,0.0,0
25.0,31.0,-2.0,-12.0,-17.0,-13.0,-2.0,-10.0,0.0,0.0,0.0,0.0,0.0,0.0,0.0,0.0,0
15.0,18.0,-6.0,-7.0,-13.0,-3.0,-3.0,-5.0,0.0,0.0,0.0,0.0,0.0,0.0,0.0,0.0,0
8.0,-4.0,-2.0,-11.0,-2.0,-7.0,-4.0,-4.0,0.0,0.0,0.0,0.0,0.0,0.0,0.0,0.0,0
-8.0,-21.0,-14.0,-9.0,-3.0,-1.0,-11.0,-6.0,0.0,0.0,0.0,0.0,0.0,0.0,0.0,0.0,0
-23.0,-17.0,-16.0,11.0,11.0,11.0,-1.0,-11.0,0.0,0.0,0.0,0.0,0.0,0.0,0.0,0.0,0
-26.0,-7.0,-10.0,16.0,6.0,6.0,5.0,-1.0,0.0,0.0,0.0,0.0,0.0,0.0,0.0,0.0,0
6.0,-5.0,-13.0,-1.0,-3.0,-2.0,-4.0,14.0,0.0,0.0,0.0,0.0,0.0,0.0,0.0,0.0,0
22.0,-17.0,-21.0,-6.0,-9.0,-9.0,-11.0,11.0,0.0,0.0,0.0,0.0,0.0,0.0,0.0,0.0,0
14.0,-18.0,-9.0,0.0,-1.0,-11.0,-7.0,0.0,0.0,0.0,0.0,0.0,0.0,0.0,0.0,0.0,0
12.0,-6.0,0.0,10.0,0.0,-9.0,-19.0,-1.0,0.0,0.0,0.0,0.0,0.0,0.0,0.0,0.0,0
13.0,-11.0,-13.0,-5.0,-1.0,-8.0,-26.0,-1.0,0.0,0.0,0.0,0.0,0.0,0.0,0.0,0.0,0
-6.0,-15.0,-13.0,-12.0,-10.0,0.0,-18.0,1.0,0.0,0.0,0.0,0.0,0.0,0.0,0.0,0.0,0
-16.0,-5.0,9.0,-3.0,-8.0,-1.0,-13.0,-1.0,0.0,0.0,0.0,0.0,0.0,0.0,0.0,0.0,0
-12.0,8.0,17.0,7.0,-1.0,0.0,-3.0,2.0,0.0,0.0,0.0,0.0,0.0,0.0,0.0,0.0,0
-14.0,12.0,14.0,5.0,-5.0,7.0,11.0,-2.0,0.0,0.0,0.0,0.0,0.0,0.0,0.0,0.0,0
-13.0,11.0,4.0,-8.0,-3.0,4.0,17.0,-6.0,0.0,0.0,0.0,0.0,0.0,0.0,0.0,0.0,0
-15.0,11.0,2.0,-18.0,-2.0,0.0,23.0,-8.0,0.0,0.0,0.0,0.0,0.0,0.0,0.0,0.0,0
-14.0,9.0,-2.0,-16.0,5.0,-2.0,23.0,-6.0,0.0,0.0,0.0,0.0,0.0,0.0,0.0,0.0,0
3.0,15.0,-2.0,-9.0,7.0,-4.0,10.0,-2.0,0.0,0.0,0.0,0.0,0.0,0.0,0.0,0.0,0
12.0,16.0,0.0,-9.0,0.0,-2.0,-5.0,-10.0,0.0,0.0,0.0,0.0,0.0,0.0,0.0,0.0,0
18.0,2.0,-11.0,-13.0,1.0,1.0,0.0,-13.0,0.0,0.0,0.0,0.0,0.0,0.0,0.0,0.0,0
6.0,-35.0,-16.0,0.0,2.0,0.0,-4.0,-7.0,0.0,0.0,0.0,0.0,0.0,0.0,0.0,0.0,0
-27.0,-54.0,-10.0,6.0,-3.0,-9.0,-5.0,-5.0,0.0,0.0,0.0,0.0,0.0,0.0,0.0,0.0,0
-23.0,-35.0,-3.0,3.0,-6.0,-8.0,-6.0,1.0,0.0,0.0,0.0,0.0,0.0,0.0,0.0,0.0,0
-11.0,4.0,7.0,4.0,-10.0,-3.0,-1.0,3.0,0.0,0.0,0.0,0.0,0.0,0.0,0.0,0.0,0
-20.0,5.0,5.0,-3.0,-11.0,-2.0,-2.0,-5.0,0.0,0.0,0.0,0.0,0.0,0.0,0.0,0.0,0
-22.0,-13.0,-7.0,-6.0,-7.0,-6.0,-13.0,-2.0,0.0,0.0,0.0,0.0,0.0,0.0,0.0,0.0,0
5.0,11.0,5.0,11.0,1.0,-4.0,-12.0,1.0,0.0,0.0,0.0,0.0,0.0,0.0,0.0,0.0,0
37.0,40.0,13.0,6.0,5.0,1.0,-8.0,4.0,0.0,0.0,0.0,0.0,0.0,0.0,0.0,0.0,0
48.0,35.0,2.0,-5.0,-1.0,-1.0,-17.0,2.0,0.0,0.0,0.0,0.0,0.0,0.0,0.0,0.0,0
35.0,20.0,-10.0,-8.0,3.0,-5.0,-22.0,1.0,0.0,0.0,0.0,0.0,0.0,0.0,0.0,0.0,0
16.0,-4.0,-10.0,-4.0,4.0,0.0,-10.0,0.0,0.0,0.0,0.0,0.0,0.0,0.0,0.0,0.0,0
-6.0,-30.0,-19.0,-4.0,-4.0,5.0,-8.0,2.0,0.0,0.0,0.0,0.0,0.0,0.0,0.0,0.0,0
-23.0,-33.0,-24.0,-7.0,-1.0,-1.0,-6.0,-1.0,0.0,0.0,0.0,0.0,0.0,0.0,0.0,0.0,0
-40.0,-25.0,-15.0,-7.0,-4.0,-1.0,2.0,-2.0,0.0,0.0,0.0,0.0,0.0,0.0,0.0,0.0,0
-35.0,-21.0,-2.0,-5.0,0.0,3.0,18.0,1.0,0.0,0.0,0.0,0.0,0.0,0.0,0.0,0.0,0
-26.0,-9.0,6.0,-3.0,-2.0,6.0,30.0,-3.0,0.0,0.0,0.0,0.0,0.0,0.0,0.0,0.0,0
-36.0,-10.0,2.0,-9.0,-7.0,-5.0,21.0,-12.0,0.0,0.0,0.0,0.0,0.0,0.0,0.0,0.0,0
-3.0,1.0,15.0,2.0,-4.0,-2.0,13.0,-3.0,0.0,0.0,0.0,0.0,0.0,0.0,0.0,0.0,0
41.0,28.0,24.0,13.0,7.0,4.0,2.0,-4.0,0.0,0.0,0.0,0.0,0.0,0.0,0.0,0.0,0
28.0,34.0,19.0,4.0,-1.0,-1.0,-7.0,-18.0,0.0,0.0,0.0,0.0,0.0,0.0,0.0,0.0,0
25.0,21.0,7.0,-4.0,-4.0,-13.0,-11.0,-15.0,0.0,0.0,0.0,0.0,0.0,0.0,0.0,0.0,0
6.0,14.0,8.0,0.0,-3.0,-10.0,-9.0,-1.0,0.0,0.0,0.0,0.0,0.0,0.0,0.0,0.0,0
-43.0,-8.0,-1.0,-3.0,-5.0,-4.0,2.0,3.0,0.0,0.0,0.0,0.0,0.0,0.0,0.0,0.0,0
-67.0,-19.0,-3.0,-3.0,-2.0,-1.0,2.0,-1.0,0.0,0.0,0.0,0.0,0.0,0.0,0.0,0.0,0
-19.0,-9.0,-13.0,-4.0,1.0,0.0,-3.0,-3.0,0.0,0.0,0.0,0.0,0.0,0.0,0.0,0.0,0
8.0,-15.0,-33.0,-16.0,-7.0,-7.0,-10.0,2.0,0.0,0.0,0.0,0.0,0.0,0.0,0.0,0.0,0
18.0,1.0,-21.0,-8.0,-4.0,-6.0,-8.0,4.0,0.0,0.0,0.0,0.0,0.0,0.0,0.0,0.0,0
23.0,15.0,2.0,7.0,-8.0,-5.0,-8.0,6.0,0.0,0.0,0.0,0.0,0.0,0.0,0.0,0.0,0
51.0,-15.0,-8.0,-5.0,-13.0,-5.0,-17.0,4.0,0.0,0.0,0.0,0.0,0.0,0.0,0.0,0.0,0
49.0,-36.0,-18.0,-6.0,-8.0,-3.0,-25.0,4.0,0.0,0.0,0.0,0.0,0.0,0.0,0.0,0.0,0
19.0,-40.0,5.0,13.0,2.0,-1.0,-21.0,2.0,0.0,0.0,0.0,0.0,0.0,0.0,0.0,0.0,0
-9.0,-30.0,11.0,5.0,-1.0,3.0,-10.0,0.0,0.0,0.0,0.0,0.0,0.0,0.0,0.0,0.0,0
-21.0,-15.0,-14.0,-15.0,-3.0,-1.0,6.0,-1.0,0.0,0.0,0.0,0.0,0.0,0.0,0.0,0.0,0
-22.0,19.0,-38.0,-28.0,-5.0,2.0,8.0,-2.0,0.0,0.0,0.0,0.0,0.0,0.0,0.0,0.0,0
-44.0,38.0,-44.0,-34.0,1.0,0.0,3.0,-2.0,0.0,0.0,0.0,0.0,0.0,0.0,0.0,0.0,0
-60.0,26.0,-16.0,-19.0,1.0,1.0,21.0,-11.0,0.0,0.0,0.0,0.0,0.0,0.0,0.0,0.0,0
-28.0,33.0,31.0,15.0,6.0,-2.0,24.0,-13.0,0.0,0.0,0.0,0.0,0.0,0.0,0.0,0.0,0
2.0,49.0,52.0,36.0,6.0,-3.0,11.0,-6.0,0.0,0.0,0.0,0.0,0.0,0.0,0.0,0.0,0
2.0,18.0,42.0,29.0,4.0,3.0,4.0,-1.0,0.0,0.0,0.0,0.0,0.0,0.0,0.0,0.0,0
13.0,-26.0,28.0,11.0,-2.0,1.0,3.0,-3.0,0.0,0.0,0.0,0.0,0.0,0.0,0.0,0.0,0
18.0,-38.0,11.0,-2.0,-4.0,4.0,0.0,0.0,0.0,0.0,0.0,0.0,0.0,0.0,0.0,0.0,0
19.0,-33.0,1.0,-1.0,-10.0,-7.0,-10.0,-3.0,0.0,0.0,0.0,0.0,0.0,0.0,0.0,0.0,0
8.0,-22.0,0.0,-2.0,-9.0,-7.0,-6.0,-4.0,0.0,0.0,0.0,0.0,0.0,0.0,0.0,0.0,0
-22.0,-16.0,-14.0,-12.0,-11.0,-18.0,-3.0,-2.0,0.0,0.0,0.0,0.0,0.0,0.0,0.0,0.0,0
-25.0,-1.0,-4.0,-6.0,-9.0,-13.0,-10.0,-2.0,0.0,0.0,0.0,0.0,0.0,0.0,0.0,0.0,0
-7.0,11.0,1.0,-4.0,1.0,-1.0,-13.0,-6.0,0.0,0.0,0.0,0.0,0.0,0.0,0.0,0.0,0
17.0,19.0,-26.0,-16.0,1.0,-1.0,-12.0,-5.0,0.0,0.0,0.0,0.0,0.0,0.0,0.0,0.0,0
28.0,-9.0,-67.0,-23.0,-5.0,0.0,-11.0,2.0,0.0,0.0,0.0,0.0,0.0,0.0,0.0,0.0,0
10.0,-37.0,-66.0,-16.0,-6.0,2.0,-17.0,4.0,0.0,0.0,0.0,0.0,0.0,0.0,0.0,0.0,0
16.0,-23.0,-47.0,-17.0,-2.0,-4.0,-20.0,9.0,0.0,0.0,0.0,0.0,0.0,0.0,0.0,0.0,0
18.0,-1.0,-10.0,-7.0,-2.0,5.0,-7.0,9.0,0.0,0.0,0.0,0.0,0.0,0.0,0.0,0.0,0
0.0,8.0,5.0,-3.0,-6.0,-2.0,-2.0,2.0,0.0,0.0,0.0,0.0,0.0,0.0,0.0,0.0,0
-20.0,10.0,25.0,3.0,-4.0,-3.0,-5.0,-3.0,0.0,0.0,0.0,0.0,0.0,0.0,0.0,0.0,0
-49.0,13.0,53.0,11.0,-6.0,-5.0,4.0,-4.0,0.0,0.0,0.0,0.0,0.0,0.0,0.0,0.0,0
-38.0,29.0,52.0,21.0,3.0,-5.0,5.0,-5.0,0.0,0.0,0.0,0.0,0.0,0.0,0.0,0.0,0
-23.0,14.0,33.0,25.0,10.0,5.0,15.0,-5.0,0.0,0.0,0.0,0.0,0.0,0.0,0.0,0.0,0
-11.0,-8.0,19.0,18.0,9.0,9.0,22.0,-3.0,0.0,0.0,0.0,0.0,0.0,0.0,0.0,0.0,0
3.0,-27.0,-7.0,-1.0,7.0,3.0,14.0,-13.0,0.0,0.0,0.0,0.0,0.0,0.0,0.0,0.0,0
4.0,-21.0,-16.0,-12.0,-4.0,-6.0,3.0,-15.0,0.0,0.0,0.0,0.0,0.0,0.0,0.0,0.0,0
-2.0,-18.0,-17.0,-11.0,-11.0,-7.0,-1.0,-2.0,0.0,0.0,0.0,0.0,0.0,0.0,0.0,0.0,0
12.0,5.0,-11.0,-9.0,-11.0,-3.0,-3.0,0.0,0.0,0.0,0.0,0.0,0.0,0.0,0.0,0.0,0
18.0,11.0,-10.0,-13.0,-9.0,-13.0,-3.0,3.0,0.0,0.0,0.0,0.0,0.0,0.0,0.0,0.0,0
3.0,0.0,-15.0,-16.0,-10.0,-14.0,-6.0,1.0,0.0,0.0,0.0,0.0,0.0,0.0,0.0,0.0,0
-6.0,-6.0,-12.0,-14.0,-5.0,-4.0,-2.0,-9.0,0.0,0.0,0.0,0.0,0.0,0.0,0.0,0.0,0
9.0,10.0,-2.0,-8.0,3.0,5.0,-2.0,-10.0,0.0,0.0,0.0,0.0,0.0,0.0,0.0,0.0,0
19.0,0.0,3.0,8.0,5.0,3.0,-12.0,4.0,0.0,0.0,0.0,0.0,0.0,0.0,0.0,0.0,0
10.0,-5.0,4.0,8.0,7.0,-2.0,-12.0,5.0,0.0,0.0,0.0,0.0,0.0,0.0,0.0,0.0,0
-10.0,-10.0,-2.0,-7.0,-9.0,-6.0,-10.0,0.0,0.0,0.0,0.0,0.0,0.0,0.0,0.0,0.0,0
-9.0,-10.0,-10.0,-4.0,-8.0,-11.0,-19.0,0.0,0.0,0.0,0.0,0.0,0.0,0.0,0.0,0.0,0
2.0,-9.0,-25.0,-8.0,-6.0,-11.0,-29.0,0.0,0.0,0.0,0.0,0.0,0.0,0.0,0.0,0.0,0
-5.0,-15.0,-25.0,-2.0,-8.0,-1.0,-18.0,3.0,0.0,0.0,0.0,0.0,0.0,0.0,0.0,0.0,0
-6.0,-10.0,-24.0,2.0,-8.0,-4.0,-5.0,0.0,0.0,0.0,0.0,0.0,0.0,0.0,0.0,0.0,0
4.0,2.0,-11.0,1.0,-1.0,2.0,-4.0,-1.0,0.0,0.0,0.0,0.0,0.0,0.0,0.0,0.0,0
6.0,12.0,12.0,11.0,10.0,9.0,13.0,1.0,0.0,0.0,0.0,0.0,0.0,0.0,0.0,0.0,0
-3.0,5.0,24.0,3.0,11.0,9.0,18.0,3.0,0.0,0.0,0.0,0.0,0.0,0.0,0.0,0.0,0
-30.0,0.0,31.0,1.0,8.0,4.0,19.0,-4.0,0.0,0.0,0.0,0.0,0.0,0.0,0.0,0.0,0
-29.0,6.0,21.0,7.0,0.0,3.0,17.0,-17.0,0.0,0.0,0.0,0.0,0.0,0.0,0.0,0.0,0
-1.0,9.0,14.0,3.0,-4.0,0.0,11.0,-5.0,0.0,0.0,0.0,0.0,0.0,0.0,0.0,0.0,0
15.0,-1.0,-1.0,-23.0,-10.0,-9.0,4.0,-1.0,0.0,0.0,0.0,0.0,0.0,0.0,0.0,0.0,0
1.0,4.0,6.0,-20.0,-3.0,-13.0,-2.0,-4.0,0.0,0.0,0.0,0.0,0.0,0.0,0.0,0.0,0
-11.0,6.0,-5.0,-10.0,-13.0,-20.0,-9.0,-11.0,0.0,0.0,0.0,0.0,0.0,0.0,0.0,0.0,0
-5.0,9.0,-15.0,-10.0,-10.0,-12.0,-8.0,-10.0,0.0,0.0,0.0,0.0,0.0,0.0,0.0,0.0,0
4.0,9.0,-19.0,-7.0,-6.0,-1.0,-2.0,-4.0,0.0,0.0,0.0,0.0,0.0,0.0,0.0,0.0,0
-15.0,-36.0,-20.0,-6.0,-5.0,-1.0,-2.0,-4.0,0.0,0.0,0.0,0.0,0.0,0.0,0.0,0.0,0
-27.0,-55.0,-19.0,1.0,-3.0,1.0,-2.0,-8.0,0.0,0.0,0.0,0.0,0.0,0.0,0.0,0.0,0
6.0,-22.0,-13.0,6.0,2.0,-1.0,-13.0,-9.0,0.0,0.0,0.0,0.0,0.0,0.0,0.0,0.0,0
26.0,29.0,2.0,2.0,-2.0,-7.0,-15.0,3.0,0.0,0.0,0.0,0.0,0.0,0.0,0.0,0.0,0
17.0,26.0,17.0,2.0,1.0,-4.0,-12.0,9.0,0.0,0.0,0.0,0.0,0.0,0.0,0.0,0.0,0
7.0,1.0,-4.0,-3.0,3.0,0.0,-7.0,6.0,0.0,0.0,0.0,0.0,0.0,0.0,0.0,0.0,0
14.0,-13.0,-29.0,-6.0,0.0,3.0,-16.0,2.0,0.0,0.0,0.0,0.0,0.0,0.0,0.0,0.0,0
32.0,4.0,-21.0,2.0,-1.0,1.0,-16.0,2.0,0.0,0.0,0.0,0.0,0.0,0.0,0.0,0.0,0
30.0,-7.0,-21.0,1.0,3.0,-3.0,-6.0,4.0,0.0,0.0,0.0,0.0,0.0,0.0,0.0,0.0,0
-5.0,-37.0,-12.0,7.0,1.0,-4.0,2.0,6.0,0.0,0.0,0.0,0.0,0.0,0.0,0.0,0.0,0
-35.0,-20.0,16.0,9.0,3.0,5.0,6.0,-2.0,0.0,0.0,0.0,0.0,0.0,0.0,0.0,0.0,0
-46.0,-10.0,15.0,9.0,0.0,6.0,10.0,-10.0,0.0,0.0,0.0,0.0,0.0,0.0,0.0,0.0,0
-47.0,9.0,18.0,-2.0,-5.0,8.0,11.0,-13.0,0.0,0.0,0.0,0.0,0.0,0.0,0.0,0.0,0
-61.0,25.0,30.0,-8.0,-7.0,-2.0,10.0,-18.0,0.0,0.0,0.0,0.0,0.0,0.0,0.0,0.0,0
-38.0,31.0,32.0,-8.0,-13.0,-15.0,11.0,-3.0,0.0,0.0,0.0,0.0,0.0,0.0,0.0,0.0,0
5.0,22.0,7.0,-14.0,-8.0,-17.0,12.0,6.0,0.0,0.0,0.0,0.0,0.0,0.0,0.0,0.0,0
61.0,35.0,-4.0,-12.0,-5.0,-4.0,8.0,-6.0,0.0,0.0,0.0,0.0,0.0,0.0,0.0,0.0,0
78.0,34.0,-6.0,-11.0,-1.0,0.0,4.0,-14.0,0.0,0.0,0.0,0.0,0.0,0.0,0.0,0.0,0
49.0,-4.0,-17.0,-6.0,-7.0,-4.0,-5.0,-11.0,0.0,0.0,0.0,0.0,0.0,0.0,0.0,0.0,0
7.0,-40.0,-20.0,-3.0,4.0,0.0,-8.0,-8.0,0.0,0.0,0.0,0.0,0.0,0.0,0.0,0.0,0
-45.0,-56.0,-14.0,-7.0,8.0,8.0,-8.0,-1.0,0.0,0.0,0.0,0.0,0.0,0.0,0.0,0.0,0
-58.0,-40.0,-9.0,-11.0,-9.0,1.0,-14.0,-5.0,0.0,0.0,0.0,0.0,0.0,0.0,0.0,0.0,0
-31.0,-12.0,-10.0,-5.0,-10.0,-18.0,-17.0,0.0,0.0,0.0,0.0,0.0,0.0,0.0,0.0,0.0,0
-7.0,2.0,-7.0,10.0,-1.0,-14.0,-13.0,10.0,0.0,0.0,0.0,0.0,0.0,0.0,0.0,0.0,0
6.0,-18.0,-35.0,-3.0,3.0,-5.0,-7.0,9.0,0.0,0.0,0.0,0.0,0.0,0.0,0.0,0.0,0
14.0,-25.0,-41.0,-10.0,-2.0,-4.0,-13.0,3.0,0.0,0.0,0.0,0.0,0.0,0.0,0.0,0.0,0
16.0,-12.0,-28.0,1.0,-6.0,1.0,-17.0,-4.0,0.0,0.0,0.0,0.0,0.0,0.0,0.0,0.0,0
8.0,21.0,1.0,19.0,8.0,2.0,-14.0,1.0,0.0,0.0,0.0,0.0,0.0,0.0,0.0,0.0,0
7.0,24.0,30.0,19.0,6.0,5.0,-9.0,8.0,0.0,0.0,0.0,0.0,0.0,0.0,0.0,0.0,0
17.0,32.0,50.0,7.0,0.0,3.0,-5.0,7.0,0.0,0.0,0.0,0.0,0.0,0.0,0.0,0.0,0
15.0,27.0,62.0,15.0,3.0,6.0,5.0,-4.0,0.0,0.0,0.0,0.0,0.0,0.0,0.0,0.0,0
-6.0,-4.0,35.0,8.0,6.0,7.0,16.0,1.0,0.0,0.0,0.0,0.0,0.0,0.0,0.0,0.0,0
-44.0,-34.0,-17.0,-17.0,-8.0,1.0,20.0,-2.0,0.0,0.0,0.0,0.0,0.0,0.0,0.0,0.0,0
-45.0,-28.0,-45.0,-33.0,-21.0,-6.0,18.0,-14.0,0.0,0.0,0.0,0.0,0.0,0.0,0.0,0.0,0
-19.0,4.0,-32.0,-19.0,-14.0,-11.0,3.0,-20.0,0.0,0.0,0.0,0.0,0.0,0.0,0.0,0.0,0
5.0,17.0,-12.0,-15.0,-8.0,-10.0,-2.0,-15.0,0.0,0.0,0.0,0.0,0.0,0.0,0.0,0.0,0
2.0,0.0,-5.0,-16.0,-6.0,-9.0,0.0,-2.0,0.0,0.0,0.0,0.0,0.0,0.0,0.0,0.0,0
-11.0,-22.0,-13.0,-22.0,-12.0,-5.0,1.0,-4.0,0.0,0.0,0.0,0.0,0.0,0.0,0.0,0.0,0
-2.0,-20.0,-8.0,-7.0,-4.0,-8.0,-4.0,-3.0,0.0,0.0,0.0,0.0,0.0,0.0,0.0,0.0,0
15.0,17.0,7.0,3.0,-2.0,-10.0,-7.0,3.0,0.0,0.0,0.0,0.0,0.0,0.0,0.0,0.0,0
12.0,26.0,17.0,3.0,10.0,-2.0,-2.0,2.0,0.0,0.0,0.0,0.0,0.0,0.0,0.0,0.0,0
-2.0,9.0,17.0,19.0,16.0,8.0,-1.0,4.0,0.0,0.0,0.0,0.0,0.0,0.0,0.0,0.0,0
0.0,-4.0,1.0,27.0,4.0,0.0,-16.0,4.0,0.0,0.0,0.0,0.0,0.0,0.0,0.0,0.0,0
19.0,-4.0,4.0,18.0,4.0,-8.0,-20.0,3.0,0.0,0.0,0.0,0.0,0.0,0.0,0.0,0.0,0
26.0,7.0,5.0,5.0,-2.0,-5.0,-10.0,-6.0,0.0,0.0,0.0,0.0,0.0,0.0,0.0,0.0,0
20.0,-2.0,-10.0,1.0,-7.0,-11.0,-15.0,-9.0,0.0,0.0,0.0,0.0,0.0,0.0,0.0,0.0,0
-14.0,-38.0,-27.0,-3.0,-7.0,2.0,-16.0,1.0,0.0,0.0,0.0,0.0,0.0,0.0,0.0,0.0,0
-37.0,-46.0,-27.0,-9.0,-10.0,8.0,-11.0,6.0,0.0,0.0,0.0,0.0,0.0,0.0,0.0,0.0,0
-12.0,-30.0,-28.0,-12.0,-4.0,-2.0,-8.0,5.0,0.0,0.0,0.0,0.0,0.0,0.0,0.0,0.0,0
2.0,-3.0,-17.0,-15.0,-2.0,2.0,-1.0,4.0,0.0,0.0,0.0,0.0,0.0,0.0,0.0,0.0,0
-22.0,-2.0,6.0,-16.0,0.0,6.0,3.0,-1.0,0.0,0.0,0.0,0.0,0.0,0.0,0.0,0.0,0
-38.0,-8.0,14.0,-19.0,-8.0,0.0,10.0,-10.0,0.0,0.0,0.0,0.0,0.0,0.0,0.0,0.0,0
-29.0,9.0,25.0,0.0,-4.0,2.0,19.0,-10.0,0.0,0.0,0.0,0.0,0.0,0.0,0.0,0.0,0
-22.0,31.0,17.0,12.0,1.0,1.0,25.0,-4.0,0.0,0.0,0.0,0.0,0.0,0.0,0.0,0.0,0
-5.0,36.0,1.0,2.0,0.0,-4.0,5.0,-9.0,0.0,0.0,0.0,0.0,0.0,0.0,0.0,0.0,0
48.0,54.0,0.0,-1.0,0.0,-15.0,-6.0,-10.0,0.0,0.0,0.0,0.0,0.0,0.0,0.0,0.0,0
70.0,39.0,11.0,3.0,-1.0,-4.0,-3.0,-3.0,0.0,0.0,0.0,0.0,0.0,0.0,0.0,0.0,0
