CH1,CH2,CH3,CH4,CH5,CH6,CH7,CH8,CH9,CH10,CH11,CH12,CH13,CH14,CH15,CH16,label
1365.0,-3310.0,-2943.0,-580.0,170.0,-9457.0,-4981.0,-1359.0,0.0,0.0,0.0,0.0,0.0,0.0,0.0,0.0,0
-436.0,1057.0,940.0,179.0,-56.0,3029.0,1591.0,438.0,0.0,0.0,0.0,0.0,0.0,0.0,0.0,0.0,0
-898.0,2178.0,1934.0,374.0,-118.0,6219.0,3269.0,889.0,0.0,0.0,0.0,0.0,0.0,0.0,0.0,0.0,0
-773.0,1840.0,1634.0,316.0,-104.0,5251.0,2777.0,746.0,0.0,0.0,0.0,0.0,0.0,0.0,0.0,0.0,0
-461.0,1055.0,940.0,183.0,-52.0,3028.0,1613.0,425.0,0.0,0.0,0.0,0.0,0.0,0.0,0.0,0.0,0
-84.0,149.0,136.0,33.0,-4.0,429.0,239.0,57.0,0.0,0.0,0.0,0.0,0.0,0.0,0.0,0.0,0
310.0,-748.0,-659.0,-120.0,40.0,-2130.0,-1123.0,-308.0,0.0,0.0,0.0,0.0,0.0,0.0,0.0,0.0,0
552.0,-1306.0,-1159.0,-218.0,68.0,-3727.0,-1972.0,-539.0,0.0,0.0,0.0,0.0,0.0,0.0,0.0,0.0,0
531.0,-1263.0,-1125.0,-214.0,64.0,-3601.0,-1910.0,-514.0,0.0,0.0,0.0,0.0,0.0,0.0,0.0,0.0,0
337.0,-754.0,-681.0,-131.0,36.0,-2131.0,-1149.0,-299.0,0.0,0.0,0.0,0.0,0.0,0.0,0.0,0.0,0
120.0,-223.0,-210.0,-46.0,9.0,-621.0,-357.0,-83.0,0.0,0.0,0.0,0.0,0.0,0.0,0.0,0.0,0
3.0,25.0,20.0,-4.0,-8.0,76.0,24.0,19.0,0.0,0.0,0.0,0.0,0.0,0.0,0.0,0.0,0
-44.0,96.0,80.0,8.0,-14.0,286.0,140.0,48.0,0.0,0.0,0.0,0.0,0.0,0.0,0.0,0.0,0
-119.0,244.0,210.0,37.0,-26.0,728.0,379.0,108.0,0.0,0.0,0.0,0.0,0.0,0.0,0.0,0.0,0
-223.0,473.0,436.0,83.0,-32.0,1371.0,736.0,192.0,0.0,0.0,0.0,0.0,0.0,0.0,0.0,0.0,0
-248.0,536.0,503.0,102.0,-37.0,1521.0,827.0,207.0,0.0,0.0,0.0,0.0,0.0,0.0,0.0,0.0,0
-158.0,302.0,305.0,55.0,-12.0,844.0,471.0,110.0,0.0,0.0,0.0,0.0,0.0,0.0,0.0,0.0,0
-15.0,-14.0,-3.0,-18.0,2.0,-70.0,-8.0,-22.0,0.0,0.0,0.0,0.0,0.0,0.0,0.0,0.0,0
49.0,-133.0,-146.0,-52.0,5.0,-396.0,-195.0,-74.0,0.0,0.0,0.0,0.0,0.0,0.0,0.0,0.0,0
0.0,-39.0,-53.0,-29.0,-1.0,-94.0,-48.0,-25.0,0.0,0.0,0.0,0.0,0.0,0.0,0.0,0.0,0
-26.0,34.0,14.0,-9.0,-4.0,114.0,69.0,5.0,0.0,0.0,0.0,0.0,0.0,0.0,0.0,0.0,0
29.0,-78.0,-77.0,-13.0,11.0,-196.0,-98.0,-32.0,0.0,0.0,0.0,0.0,0.0,0.0,0.0,0.0,0
100.0,-212.0,-193.0,-27.0,24.0,-616.0,-332.0,-91.0,0.0,0.0,0.0,0.0,0.0,0.0,0.0,0.0,0
84.0,-167.0,-142.0,-8.0,11.0,-506.0,-282.0,-75.0,0.0,0.0,0.0,0.0,0.0,0.0,0.0,0.0,0
-10.0,19.0,35.0,20.0,-7.0,61.0,22.0,9.0,0.0,0.0,0.0,0.0,0.0,0.0,0.0,0.0,0
-82.0,136.0,143.0,39.0,-12.0,423.0,212.0,66.0,0.0,0.0,0.0,0.0,0.0,0.0,0.0,0.0,0
-34.0,75.0,62.0,23.0,-15.0,199.0,87.0,43.0,0.0,0.0,0.0,0.0,0.0,0.0,0.0,0.0,0
68.0,-45.0,-64.0,-8.0,6.0,-211.0,-124.0,-19.0,0.0,0.0,0.0,0.0,0.0,0.0,0.0,0.0,0
78.0,-58.0,-66.0,-14.0,9.0,-215.0,-128.0,-26.0,0.0,0.0,0.0,0.0,0.0,0.0,0.0,0.0,0
8.0,48.0,38.0,-6.0,-2.0,180.0,69.0,27.0,0.0,0.0,0.0,0.0,0.0,0.0,0.0,0.0,0
-40.0,98.0,95.0,5.0,-18.0,398.0,191.0,63.0,0.0,0.0,0.0,0.0,0.0,0.0,0.0,0.0,0
-22.0,2.0,10.0,-17.0,-18.0,121.0,54.0,21.0,0.0,0.0,0.0,0.0,0.0,0.0,0.0,0.0,0
18.0,-122.0,-114.0,-38.0,-1.0,-302.0,-163.0,-47.0,0.0,0.0,0.0,0.0,0.0,0.0,0.0,0.0,0
17.0,-111.0,-104.0,-27.0,1.0,-309.0,-153.0,-49.0,0.0,0.0,0.0,0.0,0.0,0.0,0.0,0.0,0
-34.0,30.0,26.0,5.0,-3.0,70.0,56.0,2.0,0.0,0.0,0.0,0.0,0.0,0.0,0.0,0.0,0
-69.0,112.0,97.0,23.0,-6.0,307.0,182.0,34.0,0.0,0.0,0.0,0.0,0.0,0.0,0.0,0.0,0
-44.0,47.0,50.0,14.0,6.0,92.0,73.0,-8.0,0.0,0.0,0.0,0.0,0.0,0.0,0.0,0.0,0
9.0,-75.0,-57.0,-15.0,9.0,-263.0,-119.0,-56.0,0.0,0.0,0.0,0.0,0.0,0.0,0.0,0.0,0
24.0,-80.0,-58.0,-10.0,12.0,-259.0,-129.0,-49.0,0.0,0.0,0.0,0.0,0.0,0.0,0.0,0.0,0
-13.0,44.0,50.0,20.0,5.0,87.0,52.0,4.0,0.0,0.0,0.0,0.0,0.0,0.0,0.0,0.0,0
-41.0,104.0,107.0,25.0,-10.0,291.0,163.0,40.0,0.0,0.0,0.0,0.0,0.0,0.0,0.0,0.0,0
-7.0,35.0,40.0,-1.0,-10.0,95.0,53.0,16.0,0.0,0.0,0.0,0.0,0.0,0.0,0.0,0.0,0
43.0,-74.0,-76.0,-25.0,-3.0,-216.0,-118.0,-32.0,0.0,0.0,0.0,0.0,0.0,0.0,0.0,0.0,0
26.0,-95.0,-93.0,-29.0,-3.0,-222.0,-124.0,-28.0,0.0,0.0,0.0,0.0,0.0,0.0,0.0,0.0,0
-16.0,12.0,13.0,-5.0,-10.0,79.0,35.0,8.0,0.0,0.0,0.0,0.0,0.0,0.0,0.0,0.0,0
-39.0,89.0,64.0,1.0,-12.0,259.0,123.0,39.0,0.0,0.0,0.0,0.0,0.0,0.0,0.0,0.0,0
10.0,48.0,-8.0,-16.0,-15.0,70.0,15.0,18.0,0.0,0.0,0.0,0.0,0.0,0.0,0.0,0.0,0
54.0,-52.0,-81.0,-14.0,0.0,-210.0,-133.0,-27.0,0.0,0.0,0.0,0.0,0.0,0.0,0.0,0.0,0
42.0,-71.0,-68.0,1.0,8.0,-208.0,-120.0,-27.0,0.0,0.0,0.0,0.0,0.0,0.0,0.0,0.0,0
2.0,7.0,20.0,23.0,11.0,68.0,19.0,17.0,0.0,0.0,0.0,0.0,0.0,0.0,0.0,0.0,0
-23.0,52.0,59.0,24.0,5.0,240.0,101.0,45.0,0.0,0.0,0.0,0.0,0.0,0.0,0.0,0.0,0
-13.0,-10.0,12.0,6.0,1.0,83.0,33.0,13.0,0.0,0.0,0.0,0.0,0.0,0.0,0.0,0.0,0
23.0,-93.0,-61.0,-8.0,-2.0,-176.0,-96.0,-27.0,0.0,0.0,0.0,0.0,0.0,0.0,0.0,0.0,0
17.0,-71.0,-59.0,-14.0,-2.0,-186.0,-92.0,-32.0,0.0,0.0,0.0,0.0,0.0,0.0,0.0,0.0,0
-29.0,41.0,27.0,0.0,-3.0,63.0,51.0,2.0,0.0,0.0,0.0,0.0,0.0,0.0,0.0,0.0,0
-47.0,103.0,80.0,5.0,-9.0,215.0,128.0,23.0,0.0,0.0,0.0,0.0,0.0,0.0,0.0,0.0,0
-32.0,43.0,47.0,2.0,-11.0,70.0,59.0,-2.0,0.0,0.0,0.0,0.0,0.0,0.0,0.0,0.0,0
-5.0,-54.0,-35.0,-24.0,-4.0,-177.0,-61.0,-43.0,0.0,0.0,0.0,0.0,0.0,0.0,0.0,0.0,0
-1.0,-71.0,-52.0,-31.0,-2.0,-179.0,-72.0,-33.0,0.0,0.0,0.0,0.0,0.0,0.0,0.0,0.0,0
-30.0,16.0,21.0,-6.0,-7.0,48.0,40.0,3.0,0.0,0.0,0.0,0.0,0.0,0.0,0.0,0.0,0
-40.0,74.0,72.0,10.0,-3.0,197.0,109.0,20.0,0.0,0.0,0.0,0.0,0.0,0.0,0.0,0.0,0
-10.0,28.0,28.0,13.0,6.0,64.0,24.0,4.0,0.0,0.0,0.0,0.0,0.0,0.0,0.0,0.0,0
31.0,-45.0,-51.0,6.0,4.0,-149.0,-87.0,-22.0,0.0,0.0,0.0,0.0,0.0,0.0,0.0,0.0,0
29.0,-47.0,-59.0,-3.0,8.0,-153.0,-90.0,-21.0,0.0,0.0,0.0,0.0,0.0,0.0,0.0,0.0,0
8.0,16.0,7.0,7.0,3.0,55.0,12.0,10.0,0.0,0.0,0.0,0.0,0.0,0.0,0.0,0.0,0
-7.0,58.0,48.0,25.0,-6.0,175.0,71.0,29.0,0.0,0.0,0.0,0.0,0.0,0.0,0.0,0.0,0
15.0,11.0,6.0,6.0,-8.0,52.0,5.0,10.0,0.0,0.0,0.0,0.0,0.0,0.0,0.0,0.0,0
33.0,-64.0,-61.0,-20.0,-9.0,-140.0,-89.0,-14.0,0.0,0.0,0.0,0.0,0.0,0.0,0.0,0.0,0
21.0,-64.0,-64.0,-29.0,-9.0,-138.0,-80.0,-14.0,0.0,0.0,0.0,0.0,0.0,0.0,0.0,0.0,0
4.0,4.0,-12.0,-24.0,-15.0,40.0,1.0,7.0,0.0,0.0,0.0,0.0,0.0,0.0,0.0,0.0,0
-5.0,47.0,33.0,-8.0,-14.0,159.0,53.0,34.0,0.0,0.0,0.0,0.0,0.0,0.0,0.0,0.0,0
-3.0,4.0,8.0,-2.0,-5.0,51.0,19.0,10.0,0.0,0.0,0.0,0.0,0.0,0.0,0.0,0.0,0
11.0,-48.0,-51.0,-14.0,0.0,-123.0,-61.0,-16.0,0.0,0.0,0.0,0.0,0.0,0.0,0.0,0.0,0
4.0,-42.0,-46.0,-19.0,-3.0,-121.0,-55.0,-16.0,0.0,0.0,0.0,0.0,0.0,0.0,0.0,0.0,0
-26.0,21.0,17.0,-8.0,2.0,42.0,33.0,-6.0,0.0,0.0,0.0,0.0,0.0,0.0,0.0,0.0,0
-48.0,57.0,49.0,2.0,0.0,137.0,94.0,12.0,0.0,0.0,0.0,0.0,0.0,0.0,0.0,0.0,0
-39.0,16.0,41.0,19.0,6.0,43.0,54.0,-6.0,0.0,0.0,0.0,0.0,0.0,0.0,0.0,0.0,0
-18.0,-44.0,-3.0,25.0,17.0,-110.0,-33.0,-33.0,0.0,0.0,0.0,0.0,0.0,0.0,0.0,0.0,0
-5.0,-35.0,-5.0,24.0,15.0,-110.0,-48.0,-29.0,0.0,0.0,0.0,0.0,0.0,0.0,0.0,0.0,0
-10.0,25.0,41.0,20.0,10.0,41.0,19.0,1.0,0.0,0.0,0.0,0.0,0.0,0.0,0.0,0.0,0
-16.0,62.0,61.0,10.0,1.0,128.0,67.0,13.0,0.0,0.0,0.0,0.0,0.0,0.0,0.0,0.0,0
5.0,21.0,14.0,-13.0,-12.0,34.0,19.0,2.0,0.0,0.0,0.0,0.0,0.0,0.0,0.0,0.0,0
23.0,-35.0,-42.0,-25.0,-14.0,-109.0,-59.0,-13.0,0.0,0.0,0.0,0.0,0.0,0.0,0.0,0.0,0
17.0,-42.0,-48.0,-20.0,-9.0,-99.0,-57.0,-14.0,0.0,0.0,0.0,0.0,0.0,0.0,0.0,0.0,0
2.0,0.0,-9.0,-12.0,-8.0,32.0,10.0,4.0,0.0,0.0,0.0,0.0,0.0,0.0,0.0,0.0,0
-8.0,27.0,9.0,-7.0,-7.0,106.0,45.0,20.0,0.0,0.0,0.0,0.0,0.0,0.0,0.0,0.0,0
11.0,-8.0,-22.0,-14.0,-6.0,26.0,-4.0,12.0,0.0,0.0,0.0,0.0,0.0,0.0,0.0,0.0,0
20.0,-48.0,-60.0,-13.0,-8.0,-93.0,-66.0,-6.0,0.0,0.0,0.0,0.0,0.0,0.0,0.0,0.0,0
14.0,-37.0,-41.0,-8.0,-6.0,-88.0,-60.0,-12.0,0.0,0.0,0.0,0.0,0.0,0.0,0.0,0.0,0
15.0,12.0,9.0,8.0,-6.0,30.0,-3.0,7.0,0.0,0.0,0.0,0.0,0.0,0.0,0.0,0.0,0
1.0,37.0,34.0,12.0,3.0,109.0,33.0,17.0,0.0,0.0,0.0,0.0,0.0,0.0,0.0,0.0,0
0.0,11.0,13.0,8.0,2.0,35.0,4.0,4.0,0.0,0.0,0.0,0.0,0.0,0.0,0.0,0.0,0
23.0,-29.0,-25.0,-4.0,2.0,-82.0,-47.0,-12.0,0.0,0.0,0.0,0.0,0.0,0.0,0.0,0.0,0
15.0,-28.0,-24.0,7.0,-1.0,-79.0,-27.0,-12.0,0.0,0.0,0.0,0.0,0.0,0.0,0.0,0.0,0
-27.0,13.0,14.0,6.0,-4.0,24.0,29.0,-5.0,0.0,0.0,0.0,0.0,0.0,0.0,0.0,0.0,0
-54.0,24.0,34.0,3.0,-1.0,89.0,65.0,-1.0,0.0,0.0,0.0,0.0,0.0,0.0,0.0,0.0,0
-61.0,-15.0,18.0,-4.0,1.0,28.0,38.0,-7.0,0.0,0.0,0.0,0.0,0.0,0.0,0.0,0.0,0
-38.0,-38.0,-4.0,-8.0,2.0,-73.0,-12.0,-20.0,0.0,0.0,0.0,0.0,0.0,0.0,0.0,0.0,0
-15.0,-17.0,-14.0,-8.0,-1.0,-74.0,-26.0,-13.0,0.0,0.0,0.0,0.0,0.0,0.0,0.0,0.0,0
-21.0,30.0,17.0,-2.0,-4.0,18.0,22.0,0.0,0.0,0.0,0.0,0.0,0.0,0.0,0.0,0.0,0
-12.0,50.0,41.0,3.0,1.0,79.0,49.0,5.0,0.0,0.0,0.0,0.0,0.0,0.0,0.0,0.0,0
40.0,35.0,13.0,-6.0,-2.0,21.0,14.0,-7.0,0.0,0.0,0.0,0.0,0.0,0.0,0.0,0.0,0
67.0,-3.0,-30.0,-15.0,1.0,-65.0,-40.0,-18.0,0.0,0.0,0.0,0.0,0.0,0.0,0.0,0.0,0
39.0,-18.0,-32.0,-12.0,6.0,-66.0,-47.0,-12.0,0.0,0.0,0.0,0.0,0.0,0.0,0.0,0.0,0
-4.0,-3.0,1.0,3.0,0.0,18.0,-4.0,3.0,0.0,0.0,0.0,0.0,0.0,0.0,0.0,0.0,0
-32.0,2.0,13.0,3.0,-12.0,71.0,26.0,13.0,0.0,0.0,0.0,0.0,0.0,0.0,0.0,0.0,0
-17.0,-20.0,-19.0,-2.0,-13.0,18.0,-16.0,14.0,0.0,0.0,0.0,0.0,0.0,0.0,0.0,0.0,0
2.0,-39.0,-39.0,-3.0,-9.0,-57.0,-53.0,6.0,0.0,0.0,0.0,0.0,0.0,0.0,0.0,0.0,0
5.0,-29.0,-28.0,1.0,-4.0,-57.0,-44.0,-5.0,0.0,0.0,0.0,0.0,0.0,0.0,0.0,0.0,0
17.0,-3.0,-10.0,-2.0,-9.0,10.0,-8.0,5.0,0.0,0.0,0.0,0.0,0.0,0.0,0.0,0.0,0
4.0,11.0,-1.0,-4.0,-12.0,63.0,13.0,13.0,0.0,0.0,0.0,0.0,0.0,0.0,0.0,0.0,0
1.0,-2.0,-8.0,-9.0,-2.0,25.0,2.0,0.0,0.0,0.0,0.0,0.0,0.0,0.0,0.0,0.0,0
10.0,-21.0,-28.0,-17.0,5.0,-47.0,-22.0,-9.0,0.0,0.0,0.0,0.0,0.0,0.0,0.0,0.0,0
-1.0,-10.0,-9.0,-8.0,15.0,-53.0,-15.0,-11.0,0.0,0.0,0.0,0.0,0.0,0.0,0.0,0.0,0
-11.0,12.0,23.0,4.0,7.0,21.0,29.0,2.0,0.0,0.0,0.0,0.0,0.0,0.0,0.0,0.0,0
-17.0,30.0,43.0,4.0,1.0,60.0,48.0,-4.0,0.0,0.0,0.0,0.0,0.0,0.0,0.0,0.0,0
-25.0,28.0,35.0,13.0,-4.0,20.0,35.0,-8.0,0.0,0.0,0.0,0.0,0.0,0.0,0.0,0.0,0
-17.0,6.0,3.0,3.0,0.0,-46.0,0.0,-21.0,0.0,0.0,0.0,0.0,0.0,0.0,0.0,0.0,0
-2.0,-14.0,-2.0,5.0,3.0,-47.0,-18.0,-16.0,0.0,0.0,0.0,0.0,0.0,0.0,0.0,0.0,0
-18.0,-3.0,21.0,9.0,2.0,11.0,9.0,-7.0,0.0,0.0,0.0,0.0,0.0,0.0,0.0,0.0,0
-39.0,-4.0,18.0,4.0,-8.0,52.0,30.0,-2.0,0.0,0.0,0.0,0.0,0.0,0.0,0.0,0.0,0
-32.0,-16.0,-5.0,-4.0,-7.0,8.0,12.0,-3.0,0.0,0.0,0.0,0.0,0.0,0.0,0.0,0.0,0
-10.0,-30.0,-21.0,-2.0,0.0,-47.0,-29.0,-12.0,0.0,0.0,0.0,0.0,0.0,0.0,0.0,0.0,0
2.0,-15.0,-10.0,-3.0,-2.0,-40.0,-35.0,-10.0,0.0,0.0,0.0,0.0,0.0,0.0,0.0,0.0,0
20.0,24.0,-8.0,-19.0,-9.0,6.0,2.0,1.0,0.0,0.0,0.0,0.0,0.0,0.0,0.0,0.0,0
46.0,50.0,-6.0,-24.0,-7.0,41.0,15.0,8.0,0.0,0.0,0.0,0.0,0.0,0.0,0.0,0.0,0
66.0,35.0,-26.0,-23.0,-14.0,15.0,-19.0,11.0,0.0,0.0,0.0,0.0,0.0,0.0,0.0,0.0,0
44.0,-1.0,-47.0,-29.0,-10.0,-44.0,-46.0,6.0,0.0,0.0,0.0,0.0,0.0,0.0,0.0,0.0,0
15.0,-27.0,-40.0,-16.0,-9.0,-40.0,-37.0,0.0,0.0,0.0,0.0,0.0,0.0,0.0,0.0,0.0,0
1.0,-28.0,-22.0,2.0,-8.0,11.0,-11.0,5.0,0.0,0.0,0.0,0.0,0.0,0.0,0.0,0.0,0
-38.0,-34.0,9.0,15.0,-3.0,47.0,8.0,4.0,0.0,0.0,0.0,0.0,0.0,0.0,0.0,0.0,0
-58.0,-65.0,15.0,22.0,10.0,17.0,1.0,5.0,0.0,0.0,0.0,0.0,0.0,0.0,0.0,0.0,0
-41.0,-62.0,-3.0,8.0,10.0,-34.0,-18.0,6.0,0.0,0.0,0.0,0.0,0.0,0.0,0.0,0.0,0
-13.0,-8.0,8.0,5.0,8.0,-34.0,-11.0,-2.0,0.0,0.0,0.0,0.0,0.0,0.0,0.0,0.0,0
4.0,31.0,26.0,14.0,6.0,14.0,19.0,-10.0,0.0,0.0,0.0,0.0,0.0,0.0,0.0,0.0,0
6.0,53.0,28.0,13.0,-4.0,35.0,39.0,-14.0,0.0,0.0,0.0,0.0,0.0,0.0,0.0,0.0,0
3.0,50.0,21.0,9.0,1.0,5.0,33.0,-17.0,0.0,0.0,0.0,0.0,0.0,0.0,0.0,0.0,0
3.0,30.0,15.0,-2.0,-4.0,-32.0,4.0,-14.0,0.0,0.0,0.0,0.0,0.0,0.0,0.0,0.0,0
0.0,15.0,1.0,-11.0,-8.0,-32.0,-10.0,-13.0,0.0,0.0,0.0,0.0,0.0,0.0,0.0,0.0,0
-7.0,6.0,-1.0,-17.0,-6.0,14.0,13.0,-5.0,0.0,0.0,0.0,0.0,0.0,0.0,0.0,0.0,0
-24.0,-3.0,-1.0,-22.0,-4.0,39.0,25.0,-3.0,0.0,0.0,0.0,0.0,0.0,0.0,0.0,0.0,0
-28.0,-15.0,-17.0,-28.0,-12.0,6.0,3.0,-3.0,0.0,0.0,0.0,0.0,0.0,0.0,0.0,0.0,0
-12.0,-34.0,-24.0,-27.0,-9.0,-39.0,-22.0,-6.0,0.0,0.0,0.0,0.0,0.0,0.0,0.0,0.0,0
4.0,-33.0,-24.0,-13.0,-1.0,-37.0,-18.0,-7.0,0.0,0.0,0.0,0.0,0.0,0.0,0.0,0.0,0
7.0,-13.0,-8.0,-2.0,-5.0,6.0,-5.0,1.0,0.0,0.0,0.0,0.0,0.0,0.0,0.0,0.0,0
5.0,6.0,2.0,9.0,-11.0,28.0,2.0,7.0,0.0,0.0,0.0,0.0,0.0,0.0,0.0,0.0,0
28.0,5.0,-8.0,19.0,-6.0,12.0,-28.0,8.0,0.0,0.0,0.0,0.0,0.0,0.0,0.0,0.0,0
31.0,0.0,-11.0,22.0,8.0,-22.0,-39.0,10.0,0.0,0.0,0.0,0.0,0.0,0.0,0.0,0.0,0
20.0,-4.0,-4.0,16.0,13.0,-26.0,-20.0,5.0,0.0,0.0,0.0,0.0,0.0,0.0,0.0,0.0,0
15.0,-1.0,-12.0,10.0,7.0,11.0,-11.0,10.0,0.0,0.0,0.0,0.0,0.0,0.0,0.0,0.0,0
8.0,-6.0,-3.0,1.0,-6.0,32.0,3.0,7.0,0.0,0.0,0.0,0.0,0.0,0.0,0.0,0.0,0
-14.0,-11.0,-5.0,-15.0,-10.0,13.0,-2.0,-2.0,0.0,0.0,0.0,0.0,0.0,0.0,0.0,0.0,0
-17.0,-19.0,-17.0,-19.0,-13.0,-20.0,-20.0,-1.0,0.0,0.0,0.0,0.0,0.0,0.0,0.0,0.0,0
-6.0,-10.0,-14.0,-19.0,-14.0,-28.0,-11.0,-8.0,0.0,0.0,0.0,0.0,0.0,0.0,0.0,0.0,0
-11.0,0.0,2.0,-9.0,-5.0,4.0,21.0,-7.0,0.0,0.0,0.0,0.0,0.0,0.0,0.0,0.0,0
-28.0,10.0,18.0,-3.0,3.0,21.0,40.0,-1.0,0.0,0.0,0.0,0.0,0.0,0.0,0.0,0.0,0
-36.0,11.0,28.0,-1.0,7.0,6.0,31.0,-14.0,0.0,0.0,0.0,0.0,0.0,0.0,0.0,0.0,0
-18.0,11.0,13.0,-3.0,3.0,-17.0,6.0,-16.0,0.0,0.0,0.0,0.0,0.0,0.0,0.0,0.0,0
-2.0,8.0,-5.0,-9.0,-4.0,-28.0,-7.0,-13.0,0.0,0.0,0.0,0.0,0.0,0.0,0.0,0.0,0
-14.0,-1.0,6.0,2.0,7.0,1.0,3.0,-15.0,0.0,0.0,0.0,0.0,0.0,0.0,0.0,0.0,0
-17.0,3.0,21.0,9.0,3.0,27.0,17.0,-10.0,0.0,0.0,0.0,0.0,0.0,0.0,0.0,0.0,0
2.0,6.0,14.0,6.0,-5.0,10.0,5.0,-7.0,0.0,0.0,0.0,0.0,0.0,0.0,0.0,0.0,0
15.0,-7.0,-13.0,-1.0,-9.0,-27.0,-12.0,-3.0,0.0,0.0,0.0,0.0,0.0,0.0,0.0,0.0,0
7.0,-16.0,-21.0,-3.0,-3.0,-27.0,-16.0,4.0,0.0,0.0,0.0,0.0,0.0,0.0,0.0,0.0,0
-3.0,-14.0,-8.0,-4.0,-3.0,4.0,-9.0,5.0,0.0,0.0,0.0,0.0,0.0,0.0,0.0,0.0,0
-1.0,-8.0,-3.0,1.0,-2.0,21.0,-3.0,-1.0,0.0,0.0,0.0,0.0,0.0,0.0,0.0,0.0,0
14.0,-3.0,-9.0,0.0,0.0,4.0,-19.0,6.0,0.0,0.0,0.0,0.0,0.0,0.0,0.0,0.0,0
19.0,7.0,-27.0,-4.0,0.0,-17.0,-29.0,9.0,0.0,0.0,0.0,0.0,0.0,0.0,0.0,0.0,0
21.0,4.0,-29.0,-13.0,5.0,-15.0,-26.0,2.0,0.0,0.0,0.0,0.0,0.0,0.0,0.0,0.0,0
22.0,0.0,-31.0,-20.0,-4.0,5.0,-19.0,6.0,0.0,0.0,0.0,0.0,0.0,0.0,0.0,0.0,0
12.0,-7.0,-22.0,-12.0,-6.0,21.0,-13.0,10.0,0.0,0.0,0.0,0.0,0.0,0.0,0.0,0.0,0
5.0,-12.0,-14.0,-3.0,-3.0,5.0,-14.0,-2.0,0.0,0.0,0.0,0.0,0.0,0.0,0.0,0.0,0
1.0,-20.0,-5.0,-1.0,-10.0,-19.0,-12.0,-5.0,0.0,0.0,0.0,0.0,0.0,0.0,0.0,0.0,0
-6.0,-17.0,10.0,3.0,-15.0,-24.0,4.0,-6.0,0.0,0.0,0.0,0.0,0.0,0.0,0.0,0.0,0
-26.0,-3.0,29.0,11.0,-13.0,0.0,24.0,-5.0,0.0,0.0,0.0,0.0,0.0,0.0,0.0,0.0,0
-43.0,10.0,40.0,18.0,-2.0,18.0,31.0,-9.0,0.0,0.0,0.0,0.0,0.0,0.0,0.0,0.0,0
-45.0,15.0,38.0,21.0,12.0,10.0,28.0,-10.0,0.0,0.0,0.0,0.0,0.0,0.0,0.0,0.0,0
-34.0,8.0,28.0,17.0,17.0,-9.0,13.0,-9.0,0.0,0.0,0.0,0.0,0.0,0.0,0.0,0.0,0
-7.0,1.0,9.0,5.0,9.0,-15.0,-2.0,-10.0,0.0,0.0,0.0,0.0,0.0,0.0,0.0,0.0,0
12.0,14.0,12.0,-4.0,0.0,-2.0,8.0,-10.0,0.0,0.0,0.0,0.0,0.0,0.0,0.0,0.0,0
9.0,18.0,2.0,-13.0,-6.0,7.0,11.0,-14.0,0.0,0.0,0.0,0.0,0.0,0.0,0.0,0.0,0
5.0,2.0,-8.0,-27.0,-11.0,-2.0,2.0,0.0,0.0,0.0,0.0,0.0,0.0,0.0,0.0,0.0,0
17.0,-8.0,-24.0,-30.0,-14.0,-15.0,-7.0,-1.0,0.0,0.0,0.0,0.0,0.0,0.0,0.0,0.0,0
12.0,-5.0,-32.0,-27.0,-7.0,-17.0,-11.0,-1.0,0.0,0.0,0.0,0.0,0.0,0.0,0.0,0.0,0
7.0,-8.0,-30.0,-8.0,-3.0,1.0,-12.0,4.0,0.0,0.0,0.0,0.0,0.0,0.0,0.0,0.0,0
3.0,-4.0,-20.0,3.0,-3.0,12.0,-10.0,4.0,0.0,0.0,0.0,0.0,0.0,0.0,0.0,0.0,0
7.0,-13.0,-23.0,-12.0,-10.0,4.0,-26.0,6.0,0.0,0.0,0.0,0.0,0.0,0.0,0.0,0.0,0
-4.0,-39.0,-35.0,-17.0,-10.0,-9.0,-35.0,2.0,0.0,0.0,0.0,0.0,0.0,0.0,0.0,0.0,0
-14.0,-37.0,-28.0,-3.0,-6.0,-17.0,-16.0,0.0,0.0,0.0,0.0,0.0,0.0,0.0,0.0,0.0,0
9.0,-12.0,-1.0,15.0,6.0,0.0,-16.0,4.0,0.0,0.0,0.0,0.0,0.0,0.0,0.0,0.0,0
13.0,-2.0,21.0,29.0,10.0,18.0,-11.0,8.0,0.0,0.0,0.0,0.0,0.0,0.0,0.0,0.0,0
17.0,9.0,21.0,21.0,9.0,11.0,1.0,9.0,0.0,0.0,0.0,0.0,0.0,0.0,0.0,0.0,0
17.0,11.0,8.0,13.0,5.0,-8.0,-2.0,4.0,0.0,0.0,0.0,0.0,0.0,0.0,0.0,0.0,0
7.0,16.0,15.0,10.0,2.0,-14.0,6.0,-7.0,0.0,0.0,0.0,0.0,0.0,0.0,0.0,0.0,0
-10.0,18.0,12.0,1.0,-2.0,1.0,16.0,-8.0,0.0,0.0,0.0,0.0,0.0,0.0,0.0,0.0,0
-20.0,21.0,8.0,-8.0,-8.0,7.0,21.0,-9.0,0.0,0.0,0.0,0.0,0.0,0.0,0.0,0.0,0
-29.0,20.0,13.0,-15.0,-8.0,1.0,23.0,-19.0,0.0,0.0,0.0,0.0,0.0,0.0,0.0,0.0,0
-21.0,5.0,4.0,-22.0,-3.0,-18.0,14.0,-20.0,0.0,0.0,0.0,0.0,0.0,0.0,0.0,0.0,0
-18.0,-19.0,-7.0,-15.0,-3.0,-11.0,2.0,-7.0,0.0,0.0,0.0,0.0,0.0,0.0,0.0,0.0,0
-33.0,-26.0,-2.0,-9.0,-2.0,-3.0,9.0,-7.0,0.0,0.0,0.0,0.0,0.0,0.0,0.0,0.0,0
-34.0,-19.0,-2.0,-10.0,0.0,5.0,11.0,-7.0,0.0,0.0,0.0,0.0,0.0,0.0,0.0,0.0,0
-22.0,-12.0,4.0,-5.0,-2.0,9.0,6.0,-3.0,0.0,0.0,0.0,0.0,0.0,0.0,0.0,0.0,0
4.0,-4.0,-1.0,3.0,-3.0,-8.0,-5.0,-3.0,0.0,0.0,0.0,0.0,0.0,0.0,0.0,0.0,0
20.0,4.0,-8.0,9.0,-3.0,-17.0,-23.0,3.0,0.0,0.0,0.0,0.0,0.0,0.0,0.0,0.0,0
22.0,9.0,-13.0,0.0,-2.0,-7.0,-16.0,1.0,0.0,0.0,0.0,0.0,0.0,0.0,0.0,0.0,0
26.0,18.0,-24.0,-8.0,2.0,4.0,-7.0,-2.0,0.0,0.0,0.0,0.0,0.0,0.0,0.0,0.0,0
34.0,13.0,-21.0,-6.0,-3.0,1.0,-15.0,5.0,0.0,0.0,0.0,0.0,0.0,0.0,0.0,0.0,0
27.0,6.0,-15.0,2.0,-1.0,-5.0,-19.0,15.0,0.0,0.0,0.0,0.0,0.0,0.0,0.0,0.0,0
10.0,-12.0,-14.0,1.0,-2.0,-9.0,-18.0,7.0,0.0,0.0,0.0,0.0,0.0,0.0,0.0,0.0,0
12.0,-15.0,-9.0,5.0,-7.0,0.0,-25.0,0.0,0.0,0.0,0.0,0.0,0.0,0.0,0.0,0.0,0
-2.0,-21.0,5.0,11.0,-1.0,7.0,-16.0,4.0,0.0,0.0,0.0,0.0,0.0,0.0,0.0,0.0,0
-26.0,-40.0,5.0,2.0,-1.0,1.0,-11.0,-1.0,0.0,0.0,0.0,0.0,0.0,0.0,0.0,0.0,0
-27.0,-40.0,-1.0,-5.0,-2.0,-6.0,-6.0,3.0,0.0,0.0,0.0,0.0,0.0,0.0,0.0,0.0,0
-26.0,-9.0,1.0,0.0,-3.0,0.0,6.0,2.0,0.0,0.0,0.0,0.0,0.0,0.0,0.0,0.0,0
-13.0,13.0,-4.0,-12.0,-2.0,-1.0,21.0,-14.0,0.0,0.0,0.0,0.0,0.0,0.0,0.0,0.0,0
-8.0,16.0,-3.0,-21.0,-7.0,0.0,21.0,-15.0,0.0,0.0,0.0,0.0,0.0,0.0,0.0,0.0,0
-11.0,26.0,6.0,-15.0,-5.0,3.0,24.0,-18.0,0.0,0.0,0.0,0.0,0.0,0.0,0.0,0.0,0
-3.0,24.0,18.0,-6.0,-2.0,-8.0,17.0,-10.0,0.0,0.0,0.0,0.0,0.0,0.0,0.0,0.0,0
3.0,12.0,7.0,-3.0,-6.0,-12.0,10.0,-7.0,0.0,0.0,0.0,0.0,0.0,0.0,0.0,0.0,0
-17.0,2.0,6.0,3.0,0.0,-2.0,12.0,-10.0,0.0,0.0,0.0,0.0,0.0,0.0,0.0,0.0,0
-35.0,-1.0,6.0,4.0,6.0,3.0,8.0,-8.0,0.0,0.0,0.0,0.0,0.0,0.0,0.0,0.0,0
-18.0,9.0,2.0,2.0,-1.0,-3.0,-6.0,0.0,0.0,0.0,0.0,0.0,0.0,0.0,0.0,0.0,0
12.0,8.0,-7.0,-1.0,1.0,-7.0,-18.0,-1.0,0.0,0.0,0.0,0.0,0.0,0.0,0.0,0.0,0
21.0,-1.0,-4.0,8.0,7.0,-2.0,-10.0,1.0,0.0,0.0,0.0,0.0,0.0,0.0,0.0,0.0,0
6.0,-9.0,0.0,7.0,-1.0,1.0,-5.0,-1.0,0.0,0.0,0.0,0.0,0.0,0.0,0.0,0.0,0
10.0,-23.0,0.0,3.0,1.0,0.0,-12.0,4.0,0.0,0.0,0.0,0.0,0.0,0.0,0.0,0.0,0
17.0,-28.0,-12.0,6.0,3.0,-4.0,-28.0,8.0,0.0,0.0,0.0,0.0,0.0,0.0,0.0,0.0,0
14.0,-16.0,-13.0,4.0,-2.0,-11.0,-24.0,6.0,0.0,0.0,0.0,0.0,0.0,0.0,0.0,0.0,0
9.0,-6.0,-12.0,-8.0,-6.0,-9.0,-17.0,0.0,0.0,0.0,0.0,0.0,0.0,0.0,0.0,0.0,0
15.0,6.0,-23.0,-12.0,-13.0,0.0,-20.0,4.0,0.0,0.0,0.0,0.0,0.0,0.0,0.0,0.0,0
10.0,9.0,-23.0,-13.0,-14.0,4.0,-13.0,5.0,0.0,0.0,0.0,0.0,0.0,0.0,0.0,0.0,0
-1.0,-2.0,-13.0,-3.0,-13.0,2.0,-5.0,2.0,0.0,0.0,0.0,0.0,0.0,0.0,0.0,0.0,0
-6.0,-16.0,-9.0,-4.0,-13.0,-2.0,-11.0,1.0,0.0,0.0,0.0,0.0,0.0,0.0,0.0,0.0,0
-13.0,-7.0,-4.0,-8.0,-8.0,-3.0,6.0,0.0,0.0,0.0,0.0,0.0,0.0,0.0,0.0,0.0,0
-14.0,-1.0,8.0,-12.0,0.0,2.0,22.0,-8.0,0.0,0.0,0.0,0.0,0.0,0.0,0.0,0.0,0
-21.0,3.0,17.0,-14.0,5.0,2.0,26.0,-5.0,0.0,0.0,0.0,0.0,0.0,0.0,0.0,0.0,0
-32.0,0.0,18.0,-8.0,9.0,0.0,22.0,-11.0,0.0,0.0,0.0,0.0,0.0,0.0,0.0,0.0,0
-33.0,-8.0,6.0,-5.0,6.0,-4.0,14.0,-16.0,0.0,0.0,0.0,0.0,0.0,0.0,0.0,0.0,0
-13.0,4.0,1.0,3.0,3.0,-7.0,2.0,-9.0,0.0,0.0,0.0,0.0,0.0,0.0,0.0,0.0,0
-16.0,28.0,22.0,14.0,4.0,-3.0,8.0,-7.0,0.0,0.0,0.0,0.0,0.0,0.0,0.0,0.0,0
-4.0,29.0,23.0,13.0,6.0,7.0,9.0,-12.0,0.0,0.0,0.0,0.0,0.0,0.0,0.0,0.0,0
5.0,15.0,11.0,12.0,0.0,-2.0,9.0,-8.0,0.0,0.0,0.0,0.0,0.0,0.0,0.0,0.0,0
14.0,-2.0,1.0,2.0,-5.0,-9.0,-6.0,-3.0,0.0,0.0,0.0,0.0,0.0,0.0,0.0,0.0,0
13.0,-18.0,-8.0,-9.0,-8.0,-5.0,-15.0,1.0,0.0,0.0,0.0,0.0,0.0,0.0,0.0,0.0,0
5.0,-20.0,-20.0,-24.0,-17.0,-5.0,-17.0,5.0,0.0,0.0,0.0,0.0,0.0,0.0,0.0,0.0,0
9.0,-17.0,-26.0,-16.0,-14.0,-8.0,-13.0,4.0,0.0,0.0,0.0,0.0,0.0,0.0,0.0,0.0,0
17.0,-21.0,-42.0,-12.0,-9.0,-8.0,-23.0,3.0,0.0,0.0,0.0,0.0,0.0,0.0,0.0,0.0,0
11.0,-19.0,-31.0,-4.0,-1.0,-3.0,-23.0,4.0,0.0,0.0,0.0,0.0,0.0,0.0,0.0,0.0,0
4.0,-8.0,-10.0,3.0,-3.0,1.0,-18.0,5.0,0.0,0.0,0.0,0.0,0.0,0.0,0.0,0.0,0
7.0,-8.0,-7.0,2.0,-4.0,3.0,-26.0,8.0,0.0,0.0,0.0,0.0,0.0,0.0,0.0,0.0,0
7.0,-9.0,-8.0,4.0,1.0,6.0,-12.0,5.0,0.0,0.0,0.0,0.0,0.0,0.0,0.0,0.0,0
9.0,-1.0,-5.0,4.0,6.0,7.0,-7.0,4.0,0.0,0.0,0.0,0.0,0.0,0.0,0.0,0.0,0
2.0,3.0,-5.0,0.0,2.0,-7.0,-9.0,-3.0,0.0,0.0,0.0,0.0,0.0,0.0,0.0,0.0,0
-16.0,-9.0,4.0,8.0,0.0,-6.0,8.0,-9.0,0.0,0.0,0.0,0.0,0.0,0.0,0.0,0.0,0
-24.0,-5.0,17.0,5.0,0.0,-5.0,18.0,-11.0,0.0,0.0,0.0,0.0,0.0,0.0,0.0,0.0,0
-10.0,15.0,23.0,-5.0,0.0,-1.0,23.0,-8.0,0.0,0.0,0.0,0.0,0.0,0.0,0.0,0.0,0
-11.0,24.0,23.0,-14.0,1.0,5.0,29.0,-12.0,0.0,0.0,0.0,0.0,0.0,0.0,0.0,0.0,0
-26.0,32.0,15.0,-9.0,-3.0,-5.0,13.0,-17.0,0.0,0.0,0.0,0.0,0.0,0.0,0.0,0.0,0
-18.0,16.0,2.0,-8.0,-4.0,-7.0,7.0,-11.0,0.0,0.0,0.0,0.0,0.0,0.0,0.0,0.0,0
-11.0,1.0,2.0,-7.0,4.0,-1.0,8.0,-3.0,0.0,0.0,0.0,0.0,0.0,0.0,0.0,0.0,0
-25.0,-16.0,3.0,0.0,-1.0,-3.0,10.0,-1.0,0.0,0.0,0.0,0.0,0.0,0.0,0.0,0.0,0
-18.0,-29.0,6.0,3.0,-6.0,-1.0,5.0,-6.0,0.0,0.0,0.0,0.0,0.0,0.0,0.0,0.0,0
-14.0,-28.0,1.0,-1.0,-3.0,-1.0,-8.0,-10.0,0.0,0.0,0.0,0.0,0.0,0.0,0.0,0.0,0
-11.0,-20.0,-5.0,6.0,-7.0,-7.0,-12.0,-3.0,0.0,0.0,0.0,0.0,0.0,0.0,0.0,0.0,0
11.0,-2.0,-4.0,9.0,-4.0,-9.0,-8.0,1.0,0.0,0.0,0.0,0.0,0.0,0.0,0.0,0.0,0
28.0,12.0,-2.0,0.0,-1.0,-1.0,-10.0,6.0,0.0,0.0,0.0,0.0,0.0,0.0,0.0,0.0,0
32.0,1.0,-19.0,-4.0,-2.0,-5.0,-32.0,7.0,0.0,0.0,0.0,0.0,0.0,0.0,0.0,0.0,0
28.0,-4.0,-31.0,-4.0,-11.0,-2.0,-27.0,0.0,0.0,0.0,0.0,0.0,0.0,0.0,0.0,0.0,0
35.0,7.0,-30.0,-17.0,-9.0,2.0,-16.0,3.0,0.0,0.0,0.0,0.0,0.0,0.0,0.0,0.0,0
35.0,6.0,-34.0,-22.0,-11.0,-7.0,-18.0,9.0,0.0,0.0,0.0,0.0,0.0,0.0,0.0,0.0,0
14.0,0.0,-20.0,-12.0,-7.0,-2.0,-17.0,11.0,0.0,0.0,0.0,0.0,0.0,0.0,0.0,0.0,0
-5.0,-19.0,-16.0,-3.0,-2.0,11.0,-7.0,13.0,0.0,0.0,0.0,0.0,0.0,0.0,0.0,0.0,0
-19.0,-24.0,-8.0,2.0,0.0,3.0,-5.0,0.0,0.0,0.0,0.0,0.0,0.0,0.0,0.0,0.0,0
-33.0,-13.0,11.0,7.0,4.0,-4.0,4.0,-7.0,0.0,0.0,0.0,0.0,0.0,0.0,0.0,0.0,0
-36.0,3.0,31.0,11.0,1.0,-5.0,22.0,-8.0,0.0,0.0,0.0,0.0,0.0,0.0,0.0,0.0,0
-24.0,15.0,39.0,11.0,6.0,-4.0,21.0,-8.0,0.0,0.0,0.0,0.0,0.0,0.0,0.0,0.0,0
-25.0,30.0,39.0,10.0,2.0,-2.0,27.0,-12.0,0.0,0.0,0.0,0.0,0.0,0.0,0.0,0.0,0
-20.0,14.0,4.0,-10.0,1.0,-1.0,20.0,-18.0,0.0,0.0,0.0,0.0,0.0,0.0,0.0,0.0,0
-13.0,-24.0,-25.0,-20.0,-1.0,-2.0,4.0,-21.0,0.0,0.0,0.0,0.0,0.0,0.0,0.0,0.0,0
-14.0,-16.0,-11.0,-13.0,-5.0,-5.0,3.0,-14.0,0.0,0.0,0.0,0.0,0.0,0.0,0.0,0.0,0
-12.0,3.0,7.0,-6.0,-6.0,-6.0,10.0,2.0,0.0,0.0,0.0,0.0,0.0,0.0,0.0,0.0,0
-14.0,-7.0,7.0,-3.0,-6.0,-3.0,5.0,-1.0,0.0,0.0,0.0,0.0,0.0,0.0,0.0,0.0,0
0.0,-6.0,5.0,4.0,0.0,-2.0,-6.0,3.0,0.0,0.0,0.0,0.0,0.0,0.0,0.0,0.0,0
9.0,2.0,2.0,8.0,-2.0,-7.0,-12.0,1.0,0.0,0.0,0.0,0.0,0.0,0.0,0.0,0.0,0
13.0,9.0,-7.0,14.0,8.0,-3.0,-13.0,1.0,0.0,0.0,0.0,0.0,0.0,0.0,0.0,0.0,0
21.0,8.0,-9.0,6.0,4.0,-8.0,-19.0,-1.0,0.0,0.0,0.0,0.0,0.0,0.0,0.0,0.0,0
32.0,0.0,-19.0,-3.0,-8.0,-4.0,-31.0,3.0,0.0,0.0,0.0,0.0,0.0,0.0,0.0,0.0,0
23.0,-3.0,-11.0,0.0,-7.0,-2.0,-19.0,2.0,0.0,0.0,0.0,0.0,0.0,0.0,0.0,0.0,0
12.0,4.0,-1.0,-8.0,-4.0,0.0,-13.0,5.0,0.0,0.0,0.0,0.0,0.0,0.0,0.0,0.0,0
20.0,-18.0,-19.0,-14.0,-9.0,0.0,-20.0,9.0,0.0,0.0,0.0,0.0,0.0,0.0,0.0,0.0,0
9.0,-32.0,-37.0,-18.0,-13.0,0.0,-12.0,7.0,0.0,0.0,0.0,0.0,0.0,0.0,0.0,0.0,0
-3.0,-23.0,-25.0,-16.0,-7.0,1.0,-4.0,1.0,0.0,0.0,0.0,0.0,0.0,0.0,0.0,0.0,0
-10.0,-12.0,-5.0,-5.0,-8.0,3.0,-5.0,1.0,0.0,0.0,0.0,0.0,0.0,0.0,0.0,0.0,0
-21.0,2.0,8.0,5.0,2.0,-2.0,5.0,-4.0,0.0,0.0,0.0,0.0,0.0,0.0,0.0,0.0,0
-29.0,8.0,7.0,8.0,4.0,-1.0,14.0,-13.0,0.0,0.0,0.0,0.0,0.0,0.0,0.0,0.0,0
-26.0,9.0,6.0,4.0,-2.0,2.0,17.0,-10.0,0.0,0.0,0.0,0.0,0.0,0.0,0.0,0.0,0
-36.0,7.0,13.0,7.0,1.0,-1.0,24.0,-8.0,0.0,0.0,0.0,0.0,0.0,0.0,0.0,0.0,0
-27.0,6.0,20.0,2.0,7.0,-4.0,23.0,-11.0,0.0,0.0,0.0,0.0,0.0,0.0,0.0,0.0,0
1.0,9.0,26.0,5.0,9.0,-11.0,8.0,-11.0,0.0,0.0,0.0,0.0,0.0,0.0,0.0,0.0,0
2.0,11.0,20.0,1.0,4.0,-7.0,9.0,-10.0,0.0,0.0,0.0,0.0,0.0,0.0,0.0,0.0,0
-6.0,10.0,16.0,0.0,1.0,2.0,8.0,-8.0,0.0,0.0,0.0,0.0,0.0,0.0,0.0,0.0,0
-13.0,5.0,4.0,-4.0,-4.0,3.0,5.0,0.0,0.0,0.0,0.0,0.0,0.0,0.0,0.0,0.0,0
0.0,2.0,-8.0,-8.0,-14.0,-5.0,-12.0,2.0,0.0,0.0,0.0,0.0,0.0,0.0,0.0,0.0,0
5.0,-2.0,-9.0,4.0,-13.0,-12.0,-13.0,-8.0,0.0,0.0,0.0,0.0,0.0,0.0,0.0,0.0,0
11.0,-7.0,-14.0,-3.0,2.0,-3.0,-22.0,3.0,0.0,0.0,0.0,0.0,0.0,0.0,0.0,0.0,0
11.0,-6.0,-25.0,-7.0,-3.0,-7.0,-24.0,9.0,0.0,0.0,0.0,0.0,0.0,0.0,0.0,0.0,0
20.0,-21.0,-30.0,-9.0,-14.0,-3.0,-26.0,8.0,0.0,0.0,0.0,0.0,0.0,0.0,0.0,0.0,0
13.0,-21.0,-27.0,-15.0,-6.0,1.0,-17.0,-2.0,0.0,0.0,0.0,0.0,0.0,0.0,0.0,0.0,0
13.0,-14.0,-16.0,-11.0,-8.0,-4.0,-9.0,-3.0,0.0,0.0,0.0,0.0,0.0,0.0,0.0,0.0,0
12.0,-6.0,-12.0,-3.0,-1.0,-3.0,-18.0,5.0,0.0,0.0,0.0,0.0,0.0,0.0,0.0,0.0,0
6.0,-5.0,-11.0,-2.0,-5.0,-1.0,-15.0,6.0,0.0,0.0,0.0,0.0,0.0,0.0,0.0,0.0,0
0.0,-7.0,-10.0,-5.0,-4.0,-1.0,-4.0,-2.0,0.0,0.0,0.0,0.0,0.0,0.0,0.0,0.0,0
1.0,2.0,-17.0,2.0,3.0,3.0,-1.0,5.0,0.0,0.0,0.0,0.0,0.0,0.0,0.0,0.0,0
-13.0,-3.0,0.0,5.0,7.0,5.0,6.0,1.0,0.0,0.0,0.0,0.0,0.0,0.0,0.0,0.0,0
-20.0,-3.0,15.0,6.0,5.0,2.0,10.0,-13.0,0.0,0.0,0.0,0.0,0.0,0.0,0.0,0.0,0
-20.0,1.0,17.0,-1.0,0.0,-3.0,20.0,-7.0,0.0,0.0,0.0,0.0,0.0,0.0,0.0,0.0,0
-36.0,15.0,20.0,3.0,-2.0,2.0,23.0,-13.0,0.0,0.0,0.0,0.0,0.0,0.0,0.0,0.0,0
-27.0,20.0,23.0,9.0,2.0,-4.0,19.0,-14.0,0.0,0.0,0.0,0.0,0.0,0.0,0.0,0.0,0
-4.0,2.0,10.0,6.0,0.0,-8.0,15.0,-11.0,0.0,0.0,0.0,0.0,0.0,0.0,0.0,0.0,0
-7.0,2.0,11.0,-1.0,-3.0,-9.0,8.0,-12.0,0.0,0.0,0.0,0.0,0.0,0.0,0.0,0.0,0
-6.0,-1.0,11.0,-2.0,-2.0,0.0,0.0,-6.0,0.0,0.0,0.0,0.0,0.0,0.0,0.0,0.0,0
-2.0,-2.0,-1.0,-7.0,-3.0,2.0,-2.0,-2.0,0.0,0.0,0.0,0.0,0.0,0.0,0.0,0.0,0
-1.0,-7.0,-15.0,-5.0,2.0,0.0,-8.0,0.0,0.0,0.0,0.0,0.0,0.0,0.0,0.0,0.0,0
-13.0,-15.0,-12.0,-6.0,5.0,-4.0,-9.0,5.0,0.0,0.0,0.0,0.0,0.0,0.0,0.0,0.0,0
-14.0,-7.0,-15.0,-9.0,0.0,-4.0,-4.0,3.0,0.0,0.0,0.0,0.0,0.0,0.0,0.0,0.0,0
15.0,6.0,-13.0,-1.0,-8.0,-1.0,-8.0,3.0,0.0,0.0,0.0,0.0,0.0,0.0,0.0,0.0,0
46.0,11.0,-11.0,-3.0,-8.0,-5.0,-20.0,2.0,0.0,0.0,0.0,0.0,0.0,0.0,0.0,0.0,0
38.0,3.0,-5.0,-3.0,-3.0,-7.0,-21.0,0.0,0.0,0.0,0.0,0.0,0.0,0.0,0.0,0.0,0
22.0,-3.0,2.0,-1.0,-6.0,-7.0,-14.0,2.0,0.0,0.0,0.0,0.0,0.0,0.0,0.0,0.0,0
6.0,-20.0,-13.0,-2.0,-5.0,-2.0,-29.0,6.0,0.0,0.0,0.0,0.0,0.0,0.0,0.0,0.0,0
-2.0,-37.0,-35.0,-2.0,-6.0,-1.0,-25.0,6.0,0.0,0.0,0.0,0.0,0.0,0.0,0.0,0.0,0
-7.0,-24.0,-33.0,-10.0,-8.0,0.0,-21.0,3.0,0.0,0.0,0.0,0.0,0.0,0.0,0.0,0.0,0
-4.0,-9.0,-26.0,-18.0,-4.0,-1.0,-11.0,-1.0,0.0,0.0,0.0,0.0,0.0,0.0,0.0,0.0,0
-22.0,1.0,-5.0,-13.0,-5.0,2.0,9.0,-5.0,0.0,0.0,0.0,0.0,0.0,0.0,0.0,0.0,0
-26.0,1.0,11.0,3.0,-2.0,2.0,22.0,-13.0,0.0,0.0,0.0,0.0,0.0,0.0,0.0,0.0,0
-22.0,8.0,29.0,12.0,7.0,-6.0,26.0,-11.0,0.0,0.0,0.0,0.0,0.0,0.0,0.0,0.0,0
-28.0,24.0,45.0,14.0,9.0,-4.0,27.0,-9.0,0.0,0.0,0.0,0.0,0.0,0.0,0.0,0.0,0
-30.0,23.0,46.0,14.0,7.0,9.0,26.0,-11.0,0.0,0.0,0.0,0.0,0.0,0.0,0.0,0.0,0
-11.0,7.0,21.0,5.0,4.0,1.0,9.0,-9.0,0.0,0.0,0.0,0.0,0.0,0.0,0.0,0.0,0
-4.0,-6.0,4.0,-8.0,-1.0,-6.0,3.0,-9.0,0.0,0.0,0.0,0.0,0.0,0.0,0.0,0.0,0
-6.0,-2.0,-9.0,-9.0,-2.0,-11.0,8.0,-9.0,0.0,0.0,0.0,0.0,0.0,0.0,0.0,0.0,0
1.0,8.0,-16.0,-9.0,-6.0,-10.0,2.0,-3.0,0.0,0.0,0.0,0.0,0.0,0.0,0.0,0.0,0
13.0,3.0,-17.0,-14.0,-9.0,-3.0,-6.0,2.0,0.0,0.0,0.0,0.0,0.0,0.0,0.0,0.0,0
11.0,3.0,-14.0,-12.0,-8.0,-3.0,-12.0,1.0,0.0,0.0,0.0,0.0,0.0,0.0,0.0,0.0,0
9.0,-5.0,-11.0,-5.0,-4.0,-4.0,-20.0,1.0,0.0,0.0,0.0,0.0,0.0,0.0,0.0,0.0,0
7.0,-12.0,-10.0,0.0,-8.0,-2.0,-18.0,2.0,0.0,0.0,0.0,0.0,0.0,0.0,0.0,0.0,0
15.0,-13.0,-10.0,3.0,-2.0,-2.0,-22.0,5.0,0.0,0.0,0.0,0.0,0.0,0.0,0.0,0.0,0
12.0,-17.0,-1.0,9.0,-5.0,-7.0,-23.0,2.0,0.0,0.0,0.0,0.0,0.0,0.0,0.0,0.0,0
-5.0,-22.0,-9.0,6.0,-8.0,-2.0,-15.0,0.0,0.0,0.0,0.0,0.0,0.0,0.0,0.0,0.0,0
-1.0,-26.0,-19.0,0.0,-7.0,4.0,-19.0,5.0,0.0,0.0,0.0,0.0,0.0,0.0,0.0,0.0,0
6.0,-12.0,-19.0,-9.0,-3.0,4.0,-11.0,6.0,0.0,0.0,0.0,0.0,0.0,0.0,0.0,0.0,0
1.0,2.0,-20.0,-16.0,5.0,-2.0,0.0,5.0,0.0,0.0,0.0,0.0,0.0,0.0,0.0,0.0,0
3.0,3.0,-21.0,-18.0,4.0,-4.0,-6.0,4.0,0.0,0.0,0.0,0.0,0.0,0.0,0.0,0.0,0
0.0,15.0,-6.0,-5.0,-2.0,4.0,1.0,2.0,0.0,0.0,0.0,0.0,0.0,0.0,0.0,0.0,0
-8.0,17.0,10.0,8.0,-7.0,3.0,13.0,-7.0,0.0,0.0,0.0,0.0,0.0,0.0,0.0,0.0,0
-16.0,12.0,31.0,10.0,3.0,5.0,14.0,-9.0,0.0,0.0,0.0,0.0,0.0,0.0,0.0,0.0,0
-27.0,12.0,30.0,3.0,-1.0,-7.0,26.0,-16.0,0.0,0.0,0.0,0.0,0.0,0.0,0.0,0.0,0
-25.0,1.0,11.0,-14.0,-2.0,-11.0,25.0,-16.0,0.0,0.0,0.0,0.0,0.0,0.0,0.0,0.0,0
-23.0,-2.0,4.0,-11.0,-3.0,-10.0,8.0,-7.0,0.0,0.0,0.0,0.0,0.0,0.0,0.0,0.0,0
-15.0,-13.0,-2.0,-9.0,-5.0,-5.0,3.0,-7.0,0.0,0.0,0.0,0.0,0.0,0.0,0.0,0.0,0
-12.0,-14.0,-15.0,-14.0,-5.0,-1.0,4.0,-8.0,0.0,0.0,0.0,0.0,0.0,0.0,0.0,0.0,0
-7.0,2.0,-12.0,0.0,1.0,2.0,2.0,-7.0,0.0,0.0,0.0,0.0,0.0,0.0,0.0,0.0,0
6.0,11.0,8.0,9.0,6.0,0.0,-9.0,-3.0,0.0,0.0,0.0,0.0,0.0,0.0,0.0,0.0,0
19.0,10.0,14.0,13.0,7.0,-6.0,-11.0,-2.0,0.0,0.0,0.0,0.0,0.0,0.0,0.0,0.0,0
16.0,5.0,13.0,11.0,-4.0,-6.0,-10.0,-2.0,0.0,0.0,0.0,0.0,0.0,0.0,0.0,0.0,0
15.0,2.0,4.0,1.0,-9.0,-3.0,-17.0,4.0,0.0,0.0,0.0,0.0,0.0,0.0,0.0,0.0,0
19.0,-11.0,-16.0,-8.0,-10.0,-9.0,-27.0,12.0,0.0,0.0,0.0,0.0,0.0,0.0,0.0,0.0,0
8.0,-9.0,-23.0,-8.0,-9.0,-5.0,-20.0,15.0,0.0,0.0,0.0,0.0,0.0,0.0,0.0,0.0,0
-10.0,-20.0,-23.0,-6.0,-2.0,-1.0,-13.0,7.0,0.0,0.0,0.0,0.0,0.0,0.0,0.0,0.0,0
-4.0,-23.0,-27.0,1.0,-3.0,-4.0,-22.0,7.0,0.0,0.0,0.0,0.0,0.0,0.0,0.0,0.0,0
1.0,-15.0,-18.0,1.0,-4.0,1.0,-22.0,2.0,0.0,0.0,0.0,0.0,0.0,0.0,0.0,0.0,0
-5.0,-11.0,-12.0,4.0,-1.0,7.0,-8.0,-4.0,0.0,0.0,0.0,0.0,0.0,0.0,0.0,0.0,0
7.0,-1.0,-19.0,7.0,4.0,-1.0,-8.0,0.0,0.0,0.0,0.0,0.0,0.0,0.0,0.0,0.0,0
4.0,1.0,-14.0,-9.0,6.0,-2.0,4.0,-8.0,0.0,0.0,0.0,0.0,0.0,0.0,0.0,0.0,0
-14.0,3.0,9.0,-16.0,10.0,-6.0,14.0,-10.0,0.0,0.0,0.0,0.0,0.0,0.0,0.0,0.0,0
-11.0,4.0,16.0,-14.0,6.0,-2.0,25.0,-8.0,0.0,0.0,0.0,0.0,0.0,0.0,0.0,0.0,0
-23.0,8.0,31.0,-5.0,-5.0,5.0,30.0,-6.0,0.0,0.0,0.0,0.0,0.0,0.0,0.0,0.0,0
-21.0,13.0,25.0,-3.0,-11.0,-2.0,23.0,-11.0,0.0,0.0,0.0,0.0,0.0,0.0,0.0,0.0,0
-17.0,16.0,16.0,2.0,-13.0,-10.0,9.0,-5.0,0.0,0.0,0.0,0.0,0.0,0.0,0.0,0.0,0
-18.0,14.0,21.0,5.0,-10.0,-7.0,8.0,-9.0,0.0,0.0,0.0,0.0,0.0,0.0,0.0,0.0,0
-20.0,-1.0,11.0,12.0,-6.0,-1.0,2.0,-13.0,0.0,0.0,0.0,0.0,0.0,0.0,0.0,0.0,0
-13.0,-6.0,-7.0,-2.0,-6.0,-6.0,0.0,-9.0,0.0,0.0,0.0,0.0,0.0,0.0,0.0,0.0,0
-1.0,-9.0,-24.0,-7.0,-2.0,-3.0,-13.0,1.0,0.0,0.0,0.0,0.0,0.0,0.0,0.0,0.0,0
10.0,-19.0,-22.0,-3.0,6.0,-6.0,-14.0,-2.0,0.0,0.0,0.0,0.0,0.0,0.0,0.0,0.0,0
12.0,-15.0,-17.0,1.0,14.0,-9.0,-9.0,5.0,0.0,0.0,0.0,0.0,0.0,0.0,0.0,0.0,0
20.0,-7.0,-9.0,-7.0,9.0,-2.0,-14.0,2.0,0.0,0.0,0.0,0.0,0.0,0.0,0.0,0.0,0
22.0,-12.0,-15.0,-12.0,-2.0,-3.0,-24.0,-1.0,0.0,0.0,0.0,0.0,0.0,0.0,0.0,0.0,0
19.0,-8.0,-24.0,-6.0,-9.0,-1.0,-24.0,4.0,0.0,0.0,0.0,0.0,0.0,0.0,0.0,0.0,0
14.0,5.0,-8.0,-4.0,-10.0,-1.0,-13.0,4.0,0.0,0.0,0.0,0.0,0.0,0.0,0.0,0.0,0
18.0,10.0,-9.0,-2.0,-13.0,-3.0,-13.0,7.0,0.0,0.0,0.0,0.0,0.0,0.0,0.0,0.0,0
7.0,-4.0,-9.0,0.0,-7.0,-1.0,-13.0,6.0,0.0,0.0,0.0,0.0,0.0,0.0,0.0,0.0,0
-10.0,-16.0,-11.0,-4.0,-5.0,1.0,-12.0,11.0,0.0,0.0,0.0,0.0,0.0,0.0,0.0,0.0,0
-14.0,-12.0,-12.0,-4.0,-5.0,3.0,-8.0,2.0,0.0,0.0,0.0,0.0,0.0,0.0,0.0,0.0,0
-21.0,-9.0,2.0,0.0,-1.0,8.0,12.0,-4.0,0.0,0.0,0.0,0.0,0.0,0.0,0.0,0.0,0
-24.0,-4.0,11.0,8.0,-2.0,-7.0,21.0,-5.0,0.0,0.0,0.0,0.0,0.0,0.0,0.0,0.0,0
-23.0,2.0,21.0,12.0,8.0,-8.0,15.0,-11.0,0.0,0.0,0.0,0.0,0.0,0.0,0.0,0.0,0
-21.0,3.0,25.0,10.0,5.0,3.0,21.0,-15.0,0.0,0.0,0.0,0.0,0.0,0.0,0.0,0.0,0
-27.0,13.0,20.0,2.0,7.0,0.0,21.0,-13.0,0.0,0.0,0.0,0.0,0.0,0.0,0.0,0.0,0
-17.0,17.0,14.0,1.0,7.0,-5.0,10.0,-8.0,0.0,0.0,0.0,0.0,0.0,0.0,0.0,0.0,0
-4.0,8.0,5.0,-2.0,-6.0,-4.0,9.0,-5.0,0.0,0.0,0.0,0.0,0.0,0.0,0.0,0.0,0
5.0,8.0,1.0,-3.0,-7.0,-8.0,4.0,-5.0,0.0,0.0,0.0,0.0,0.0,0.0,0.0,0.0,0
0.0,5.0,-9.0,-16.0,-1.0,-8.0,-6.0,-3.0,0.0,0.0,0.0,0.0,0.0,0.0,0.0,0.0,0
1.0,-5.0,-16.0,-21.0,-6.0,-9.0,-10.0,-2.0,0.0,0.0,0.0,0.0,0.0,0.0,0.0,0.0,0
4.0,-3.0,-20.0,-13.0,-11.0,-8.0,-8.0,1.0,0.0,0.0,0.0,0.0,0.0,0.0,0.0,0.0,0
7.0,-10.0,-14.0,-8.0,-8.0,-1.0,-15.0,3.0,0.0,0.0,0.0,0.0,0.0,0.0,0.0,0.0,0
14.0,-20.0,-12.0,0.0,-8.0,-4.0,-11.0,2.0,0.0,0.0,0.0,0.0,0.0,0.0,0.0,0.0,0
17.0,-27.0,-23.0,1.0,-7.0,-5.0,-24.0,5.0,0.0,0.0,0.0,0.0,0.0,0.0,0.0,0.0,0
7.0,-24.0,-10.0,2.0,0.0,5.0,-16.0,2.0,0.0,0.0,0.0,0.0,0.0,0.0,0.0,0.0,0
6.0,13.0,-3.0,4.0,-2.0,4.0,-7.0,3.0,0.0,0.0,0.0,0.0,0.0,0.0,0.0,0.0,0
11.0,26.0,-6.0,-4.0,-9.0,-4.0,-18.0,11.0,0.0,0.0,0.0,0.0,0.0,0.0,0.0,0.0,0
14.0,12.0,-17.0,-7.0,-9.0,-7.0,-18.0,7.0,0.0,0.0,0.0,0.0,0.0,0.0,0.0,0.0,0
-1.0,-4.0,-10.0,-9.0,-7.0,-1.0,-17.0,1.0,0.0,0.0,0.0,0.0,0.0,0.0,0.0,0.0,0
2.0,-18.0,0.0,-7.0,-2.0,0.0,-7.0,-7.0,0.0,0.0,0.0,0.0,0.0,0.0,0.0,0.0,0
-5.0,-18.0,2.0,8.0,4.0,7.0,7.0,-4.0,0.0,0.0,0.0,0.0,0.0,0.0,0.0,0.0,0
-17.0,-19.0,4.0,9.0,2.0,-2.0,19.0,0.0,0.0,0.0,0.0,0.0,0.0,0.0,0.0,0.0,0
-28.0,-11.0,12.0,1.0,9.0,-2.0,23.0,-9.0,0.0,0.0,0.0,0.0,0.0,0.0,0.0,0.0,0
-28.0,4.0,24.0,13.0,9.0,6.0,25.0,-19.0,0.0,0.0,0.0,0.0,0.0,0.0,0.0,0.0,0
-31.0,15.0,26.0,6.0,8.0,-1.0,24.0,-14.0,0.0,0.0,0.0,0.0,0.0,0.0,0.0,0.0,0
-18.0,18.0,3.0,-13.0,-6.0,-4.0,9.0,-8.0,0.0,0.0,0.0,0.0,0.0,0.0,0.0,0.0,0
-1.0,17.0,2.0,-14.0,-7.0,-5.0,5.0,-10.0,0.0,0.0,0.0,0.0,0.0,0.0,0.0,0.0,0
2.0,17.0,6.0,-7.0,-9.0,-5.0,7.0,-1.0,0.0,0.0,0.0,0.0,0.0,0.0,0.0,0.0,0
5.0,8.0,-9.0,-1.0,-6.0,-7.0,-3.0,-6.0,0.0,0.0,0.0,0.0,0.0,0.0,0.0,0.0,0
3.0,-6.0,-15.0,-7.0,-4.0,-4.0,-9.0,-12.0,0.0,0.0,0.0,0.0,0.0,0.0,0.0,0.0,0
-2.0,-14.0,-14.0,-9.0,-3.0,-8.0,-13.0,-8.0,0.0,0.0,0.0,0.0,0.0,0.0,0.0,0.0,0
1.0,-13.0,-11.0,-8.0,-4.0,-5.0,-14.0,5.0,0.0,0.0,0.0,0.0,0.0,0.0,0.0,0.0,0
5.0,-24.0,-2.0,3.0,-5.0,-5.0,-16.0,10.0,0.0,0.0,0.0,0.0,0.0,0.0,0.0,0.0,0
12.0,-20.0,-10.0,12.0,4.0,2.0,-25.0,7.0,0.0,0.0,0.0,0.0,0.0,0.0,0.0,0.0,0
9.0,-14.0,-8.0,10.0,3.0,2.0,-19.0,8.0,0.0,0.0,0.0,0.0,0.0,0.0,0.0,0.0,0
9.0,-5.0,-6.0,2.0,-1.0,2.0,-15.0,5.0,0.0,0.0,0.0,0.0,0.0,0.0,0.0,0.0,0
11.0,-12.0,-10.0,4.0,-3.0,-4.0,-18.0,1.0,0.0,0.0,0.0,0.0,0.0,0.0,0.0,0.0,0
-2.0,-14.0,-9.0,-3.0,-2.0,4.0,-18.0,1.0,0.0,0.0,0.0,0.0,0.0,0.0,0.0,0.0,0
0.0,2.0,-20.0,-20.0,-10.0,1.0,-14.0,8.0,0.0,0.0,0.0,0.0,0.0,0.0,0.0,0.0,0
21.0,26.0,-28.0,-25.0,-12.0,-7.0,-4.0,-3.0,0.0,0.0,0.0,0.0,0.0,0.0,0.0,0.0,0
17.0,24.0,-8.0,-24.0,-15.0,-2.0,4.0,-2.0,0.0,0.0,0.0,0.0,0.0,0.0,0.0,0.0,0
-4.0,8.0,0.0,-18.0,-3.0,-3.0,18.0,-6.0,0.0,0.0,0.0,0.0,0.0,0.0,0.0,0.0,0
-17.0,-6.0,14.0,-3.0,5.0,-2.0,20.0,-9.0,0.0,0.0,0.0,0.0,0.0,0.0,0.0,0.0,0
-35.0,-6.0,29.0,7.0,8.0,-8.0,28.0,-14.0,0.0,0.0,0.0,0.0,0.0,0.0,0.0,0.0,0
-48.0,-7.0,31.0,18.0,5.0,-13.0,21.0,-14.0,0.0,0.0,0.0,0.0,0.0,0.0,0.0,0.0,0
-34.0,-10.0,23.0,13.0,3.0,-3.0,3.0,-10.0,0.0,0.0,0.0,0.0,0.0,0.0,0.0,0.0,0
-21.0,0.0,15.0,12.0,3.0,4.0,5.0,-3.0,0.0,0.0,0.0,0.0,0.0,0.0,0.0,0.0,0
-2.0,9.0,2.0,4.0,4.0,-2.0,1.0,-5.0,0.0,0.0,0.0,0.0,0.0,0.0,0.0,0.0,0
5.0,3.0,-16.0,-7.0,-1.0,-4.0,-1.0,-7.0,0.0,0.0,0.0,0.0,0.0,0.0,0.0,0.0,0
7.0,-5.0,-25.0,-17.0,-5.0,-2.0,-8.0,-7.0,0.0,0.0,0.0,0.0,0.0,0.0,0.0,0.0,0
6.0,-5.0,-19.0,-14.0,-5.0,0.0,-8.0,-3.0,0.0,0.0,0.0,0.0,0.0,0.0,0.0,0.0,0
3.0,-5.0,-4.0,-9.0,-7.0,-4.0,-11.0,1.0,0.0,0.0,0.0,0.0,0.0,0.0,0.0,0.0,0
16.0,5.0,1.0,-5.0,-14.0,0.0,-20.0,5.0,0.0,0.0,0.0,0.0,0.0,0.0,0.0,0.0,0
27.0,-2.0,-10.0,-5.0,-6.0,-5.0,-24.0,11.0,0.0,0.0,0.0,0.0,0.0,0.0,0.0,0.0,0
17.0,-13.0,-6.0,0.0,-1.0,-1.0,-15.0,6.0,0.0,0.0,0.0,0.0,0.0,0.0,0.0,0.0,0
8.0,-5.0,-5.0,3.0,-2.0,-3.0,-9.0,-1.0,0.0,0.0,0.0,0.0,0.0,0.0,0.0,0.0,0
16.0,-4.0,-12.0,1.0,-3.0,-9.0,-27.0,4.0,0.0,0.0,0.0,0.0,0.0,0.0,0.0,0.0,0
15.0,-2.0,-13.0,-1.0,-8.0,-3.0,-21.0,7.0,0.0,0.0,0.0,0.0,0.0,0.0,0.0,0.0,0
0.0,-2.0,-5.0,-4.0,-5.0,-6.0,-3.0,1.0,0.0,0.0,0.0,0.0,0.0,0.0,0.0,0.0,0
-12.0,-8.0,-8.0,0.0,-1.0,-3.0,-1.0,-3.0,0.0,0.0,0.0,0.0,0.0,0.0,0.0,0.0,0
-21.0,-16.0,-1.0,4.0,6.0,3.0,7.0,-5.0,0.0,0.0,0.0,0.0,0.0,0.0,0.0,0.0,0
-23.0,-20.0,3.0,-3.0,8.0,5.0,18.0,-8.0,0.0,0.0,0.0,0.0,0.0,0.0,0.0,0.0,0
-17.0,-5.0,-8.0,-17.0,-5.0,5.0,21.0,-8.0,0.0,0.0,0.0,0.0,0.0,0.0,0.0,0.0,0
-28.0,0.0,-4.0,-10.0,-8.0,-2.0,27.0,-13.0,0.0,0.0,0.0,0.0,0.0,0.0,0.0,0.0,0
-21.0,6.0,13.0,0.0,2.0,-3.0,20.0,-13.0,0.0,0.0,0.0,0.0,0.0,0.0,0.0,0.0,0
-8.0,12.0,21.0,7.0,7.0,-1.0,6.0,-9.0,0.0,0.0,0.0,0.0,0.0,0.0,0.0,0.0,0
-12.0,20.0,35.0,3.0,3.0,-7.0,4.0,-9.0,0.0,0.0,0.0,0.0,0.0,0.0,0.0,0.0,0
-3.0,21.0,29.0,1.0,-5.0,-7.0,5.0,-10.0,0.0,0.0,0.0,0.0,0.0,0.0,0.0,0.0,0
7.0,15.0,13.0,-7.0,-2.0,-8.0,1.0,-9.0,0.0,0.0,0.0,0.0,0.0,0.0,0.0,0.0,0
4.0,-1.0,-11.0,-18.0,-6.0,-15.0,-3.0,-3.0,0.0,0.0,0.0,0.0,0.0,0.0,0.0,0.0,0
7.0,-7.0,-25.0,-12.0,-16.0,-9.0,-18.0,-1.0,0.0,0.0,0.0,0.0,0.0,0.0,0.0,0.0,0
10.0,-17.0,-19.0,-3.0,-15.0,-1.0,-8.0,0.0,0.0,0.0,0.0,0.0,0.0,0.0,0.0,0.0,0
0.0,-20.0,-16.0,-8.0,-7.0,2.0,-13.0,10.0,0.0,0.0,0.0,0.0,0.0,0.0,0.0,0.0,0
1.0,-19.0,-27.0,-11.0,-8.0,2.0,-26.0,6.0,0.0,0.0,0.0,0.0,0.0,0.0,0.0,0.0,0
1.0,-10.0,-20.0,-7.0,-5.0,0.0,-25.0,-1.0,0.0,0.0,0.0,0.0,0.0,0.0,0.0,0.0,0
8.0,-10.0,-16.0,-3.0,-5.0,-3.0,-17.0,1.0,0.0,0.0,0.0,0.0,0.0,0.0,0.0,0.0,0
19.0,-10.0,-18.0,2.0,-3.0,-2.0,-22.0,4.0,0.0,0.0,0.0,0.0,0.0,0.0,0.0,0.0,0
20.0,-2.0,-14.0,14.0,8.0,-3.0,-14.0,6.0,0.0,0.0,0.0,0.0,0.0,0.0,0.0,0.0,0
18.0,3.0,-4.0,19.0,12.0,0.0,-1.0,6.0,0.0,0.0,0.0,0.0,0.0,0.0,0.0,0.0,0
10.0,2.0,-3.0,16.0,11.0,4.0,1.0,4.0,0.0,0.0,0.0,0.0,0.0,0.0,0.0,0.0,0
-7.0,-1.0,12.0,16.0,8.0,5.0,10.0,-1.0,0.0,0.0,0.0,0.0,0.0,0.0,0.0,0.0,0
-26.0,2.0,21.0,4.0,1.0,-2.0,22.0,-6.0,0.0,0.0,0.0,0.0,0.0,0.0,0.0,0.0,0
-31.0,-6.0,26.0,-10.0,-7.0,-6.0,15.0,-15.0,0.0,0.0,0.0,0.0,0.0,0.0,0.0,0.0,0
-37.0,0.0,36.0,-13.0,-4.0,-3.0,18.0,-19.0,0.0,0.0,0.0,0.0,0.0,0.0,0.0,0.0,0
-33.0,9.0,27.0,-19.0,-12.0,-2.0,18.0,-15.0,0.0,0.0,0.0,0.0,0.0,0.0,0.0,0.0,0
-10.0,8.0,8.0,-15.0,-11.0,1.0,12.0,-15.0,0.0,0.0,0.0,0.0,0.0,0.0,0.0,0.0,0
1.0,8.0,-8.0,-18.0,-12.0,-6.0,12.0,-13.0,0.0,0.0,0.0,0.0,0.0,0.0,0.0,0.0,0
-8.0,6.0,-27.0,-31.0,-17.0,-13.0,6.0,-3.0,0.0,0.0,0.0,0.0,0.0,0.0,0.0,0.0,0
-15.0,-2.0,-35.0,-30.0,-12.0,-14.0,0.0,0.0,0.0,0.0,0.0,0.0,0.0,0.0,0.0,0.0,0
0.0,-6.0,-29.0,-19.0,0.0,-7.0,-10.0,7.0,0.0,0.0,0.0,0.0,0.0,0.0,0.0,0.0,0
7.0,-5.0,-15.0,2.0,6.0,-2.0,-7.0,6.0,0.0,0.0,0.0,0.0,0.0,0.0,0.0,0.0,0
5.0,-8.0,-6.0,27.0,7.0,0.0,-13.0,-5.0,0.0,0.0,0.0,0.0,0.0,0.0,0.0,0.0,0
9.0,-13.0,7.0,31.0,10.0,-1.0,-18.0,1.0,0.0,0.0,0.0,0.0,0.0,0.0,0.0,0.0,0
9.0,-11.0,4.0,27.0,8.0,2.0,-28.0,7.0,0.0,0.0,0.0,0.0,0.0,0.0,0.0,0.0,0
17.0,-9.0,8.0,22.0,-5.0,9.0,-20.0,8.0,0.0,0.0,0.0,0.0,0.0,0.0,0.0,0.0,0
34.0,-6.0,7.0,15.0,-10.0,2.0,-15.0,-2.0,0.0,0.0,0.0,0.0,0.0,0.0,0.0,0.0,0
34.0,4.0,-2.0,-2.0,-6.0,-7.0,-20.0,1.0,0.0,0.0,0.0,0.0,0.0,0.0,0.0,0.0,0
19.0,1.0,-2.0,-8.0,-2.0,-4.0,-15.0,10.0,0.0,0.0,0.0,0.0,0.0,0.0,0.0,0.0,0
-7.0,-2.0,-7.0,-13.0,-2.0,-7.0,-7.0,7.0,0.0,0.0,0.0,0.0,0.0,0.0,0.0,0.0,0
-13.0,-8.0,-16.0,-19.0,-4.0,-4.0,-3.0,4.0,0.0,0.0,0.0,0.0,0.0,0.0,0.0,0.0,0
-26.0,-16.0,-13.0,-21.0,-9.0,1.0,5.0,-6.0,0.0,0.0,0.0,0.0,0.0,0.0,0.0,0.0,0
-34.0,-11.0,-9.0,-21.0,-8.0,-2.0,6.0,-10.0,0.0,0.0,0.0,0.0,0.0,0.0,0.0,0.0,0
-29.0,-1.0,-3.0,-15.0,-5.0,-1.0,21.0,-8.0,0.0,0.0,0.0,0.0,0.0,0.0,0.0,0.0,0
-24.0,2.0,10.0,-12.0,-5.0,-7.0,26.0,-13.0,0.0,0.0,0.0,0.0,0.0,0.0,0.0,0.0,0
-19.0,6.0,17.0,-7.0,-2.0,-4.0,18.0,-16.0,0.0,0.0,0.0,0.0,0.0,0.0,0.0,0.0,0
-11.0,12.0,3.0,-11.0,5.0,-4.0,11.0,-4.0,0.0,0.0,0.0,0.0,0.0,0.0,0.0,0.0,0
-5.0,32.0,4.0,3.0,8.0,-7.0,11.0,-1.0,0.0,0.0,0.0,0.0,0.0,0.0,0.0,0.0,0
-5.0,22.0,8.0,7.0,1.0,-10.0,5.0,-9.0,0.0,0.0,0.0,0.0,0.0,0.0,0.0,0.0,0
-9.0,-8.0,3.0,8.0,-4.0,2.0,-6.0,-6.0,0.0,0.0,0.0,0.0,0.0,0.0,0.0,0.0,0
-1.0,-17.0,-1.0,10.0,-3.0,2.0,-17.0,-4.0,0.0,0.0,0.0,0.0,0.0,0.0,0.0,0.0,0
4.0,-15.0,-3.0,10.0,-2.0,-1.0,-15.0,-2.0,0.0,0.0,0.0,0.0,0.0,0.0,0.0,0.0,0
13.0,-10.0,5.0,11.0,6.0,0.0,-10.0,7.0,0.0,0.0,0.0,0.0,0.0,0.0,0.0,0.0,0
17.0,-11.0,-6.0,7.0,7.0,-3.0,-15.0,7.0,0.0,0.0,0.0,0.0,0.0,0.0,0.0,0.0,0
16.0,-21.0,-24.0,-2.0,-2.0,-5.0,-22.0,5.0,0.0,0.0,0.0,0.0,0.0,0.0,0.0,0.0,0
17.0,0.0,-19.0,3.0,-1.0,2.0,-14.0,9.0,0.0,0.0,0.0,0.0,0.0,0.0,0.0,0.0,0
23.0,19.0,-10.0,-2.0,-2.0,0.0,-12.0,2.0,0.0,0.0,0.0,0.0,0.0,0.0,0.0,0.0,0
14.0,-5.0,-18.0,-16.0,-8.0,-5.0,-22.0,-1.0,0.0,0.0,0.0,0.0,0.0,0.0,0.0,0.0,0
-1.0,-26.0,-13.0,-16.0,-12.0,-9.0,-19.0,1.0,0.0,0.0,0.0,0.0,0.0,0.0,0.0,0.0,0
-5.0,-16.0,-3.0,-7.0,-10.0,-9.0,-9.0,2.0,0.0,0.0,0.0,0.0,0.0,0.0,0.0,0.0,0
-5.0,-7.0,-9.0,-9.0,-12.0,3.0,-5.0,2.0,0.0,0.0,0.0,0.0,0.0,0.0,0.0,0.0,0
-13.0,-3.0,-4.0,-3.0,-10.0,0.0,3.0,-1.0,0.0,0.0,0.0,0.0,0.0,0.0,0.0,0.0,0
-19.0,9.0,10.0,0.0,-1.0,3.0,15.0,-4.0,0.0,0.0,0.0,0.0,0.0,0.0,0.0,0.0,0
-24.0,13.0,24.0,3.0,2.0,-2.0,11.0,-11.0,0.0,0.0,0.0,0.0,0.0,0.0,0.0,0.0,0
-25.0,16.0,30.0,11.0,7.0,-2.0,23.0,-17.0,0.0,0.0,0.0,0.0,0.0,0.0,0.0,0.0,0
-16.0,16.0,24.0,-3.0,-2.0,-8.0,25.0,-12.0,0.0,0.0,0.0,0.0,0.0,0.0,0.0,0.0,0
-8.0,3.0,6.0,-12.0,-3.0,-3.0,12.0,-6.0,0.0,0.0,0.0,0.0,0.0,0.0,0.0,0.0,0
-9.0,-12.0,-10.0,-16.0,1.0,-7.0,5.0,-9.0,0.0,0.0,0.0,0.0,0.0,0.0,0.0,0.0,0
-17.0,-21.0,-27.0,-19.0,3.0,-5.0,2.0,-14.0,0.0,0.0,0.0,0.0,0.0,0.0,0.0,0.0,0
-19.0,-10.0,-24.0,-11.0,-1.0,1.0,0.0,-8.0,0.0,0.0,0.0,0.0,0.0,0.0,0.0,0.0,0
7.0,11.0,-11.0,-1.0,0.0,1.0,-7.0,-1.0,0.0,0.0,0.0,0.0,0.0,0.0,0.0,0.0,0
12.0,14.0,2.0,6.0,-2.0,-2.0,-9.0,-1.0,0.0,0.0,0.0,0.0,0.0,0.0,0.0,0.0,0
11.0,1.0,7.0,14.0,0.0,-6.0,-8.0,1.0,0.0,0.0,0.0,0.0,0.0,0.0,0.0,0.0,0
26.0,-2.0,6.0,6.0,-6.0,-7.0,-10.0,8.0,0.0,0.0,0.0,0.0,0.0,0.0,0.0,0.0,0
35.0,-4.0,-8.0,-2.0,-6.0,-6.0,-23.0,12.0,0.0,0.0,0.0,0.0,0.0,0.0,0.0,0.0,0
23.0,-4.0,-5.0,6.0,-5.0,-4.0,-25.0,6.0,0.0,0.0,0.0,0.0,0.0,0.0,0.0,0.0,0
1.0,-20.0,-10.0,3.0,-5.0,1.0,-17.0,5.0,0.0,0.0,0.0,0.0,0.0,0.0,0.0,0.0,0
-13.0,-37.0,-20.0,-7.0,-5.0,1.0,-25.0,6.0,0.0,0.0,0.0,0.0,0.0,0.0,0.0,0.0,0
-6.0,-18.0,-18.0,-6.0,-2.0,-8.0,-16.0,10.0,0.0,0.0,0.0,0.0,0.0,0.0,0.0,0.0,0
13.0,0.0,-8.0,-7.0,1.0,-2.0,-10.0,-1.0,0.0,0.0,0.0,0.0,0.0,0.0,0.0,0.0,0
-6.0,5.0,-16.0,-13.0,-9.0,2.0,-7.0,-4.0,0.0,0.0,0.0,0.0,0.0,0.0,0.0,0.0,0
-24.0,16.0,-5.0,-9.0,-6.0,0.0,8.0,-7.0,0.0,0.0,0.0,0.0,0.0,0.0,0.0,0.0,0
-25.0,16.0,5.0,-7.0,2.0,0.0,21.0,-4.0,0.0,0.0,0.0,0.0,0.0,0.0,0.0,0.0,0
-17.0,9.0,21.0,-3.0,7.0,4.0,22.0,-6.0,0.0,0.0,0.0,0.0,0.0,0.0,0.0,0.0,0
-18.0,8.0,32.0,10.0,11.0,4.0,26.0,-16.0,0.0,0.0,0.0,0.0,0.0,0.0,0.0,0.0,0
-13.0,-6.0,22.0,20.0,1.0,-3.0,17.0,-15.0,0.0,0.0,0.0,0.0,0.0,0.0,0.0,0.0,0
-2.0,-21.0,4.0,9.0,-3.0,-7.0,9.0,-14.0,0.0,0.0,0.0,0.0,0.0,0.0,0.0,0.0,0
0.0,-4.0,9.0,-2.0,-4.0,-5.0,6.0,-10.0,0.0,0.0,0.0,0.0,0.0,0.0,0.0,0.0,0
-4.0,10.0,10.0,-7.0,-5.0,-11.0,5.0,-3.0,0.0,0.0,0.0,0.0,0.0,0.0,0.0,0.0,0
-7.0,26.0,-1.0,-11.0,-7.0,-9.0,1.0,-10.0,0.0,0.0,0.0,0.0,0.0,0.0,0.0,0.0,0
-3.0,13.0,-14.0,-16.0,-7.0,-2.0,-7.0,-8.0,0.0,0.0,0.0,0.0,0.0,0.0,0.0,0.0,0
1.0,-5.0,-23.0,-24.0,-7.0,0.0,-12.0,0.0,0.0,0.0,0.0,0.0,0.0,0.0,0.0,0.0,0
0.0,-13.0,-22.0,-14.0,-7.0,-4.0,-9.0,4.0,0.0,0.0,0.0,0.0,0.0,0.0,0.0,0.0,0
6.0,-17.0,-13.0,-10.0,-1.0,-3.0,-11.0,4.0,0.0,0.0,0.0,0.0,0.0,0.0,0.0,0.0,0
14.0,-21.0,-16.0,-1.0,0.0,7.0,-23.0,8.0,0.0,0.0,0.0,0.0,0.0,0.0,0.0,0.0,0
15.0,-25.0,-15.0,5.0,4.0,5.0,-21.0,8.0,0.0,0.0,0.0,0.0,0.0,0.0,0.0,0.0,0
14.0,-12.0,-19.0,2.0,-3.0,1.0,-22.0,7.0,0.0,0.0,0.0,0.0,0.0,0.0,0.0,0.0,0
18.0,-10.0,-25.0,-9.0,-11.0,-10.0,-28.0,10.0,0.0,0.0,0.0,0.0,0.0,0.0,0.0,0.0,0
14.0,-6.0,-19.0,-10.0,-11.0,-7.0,-24.0,2.0,0.0,0.0,0.0,0.0,0.0,0.0,0.0,0.0,0
2.0,4.0,-4.0,10.0,-8.0,-6.0,-15.0,-5.0,0.0,0.0,0.0,0.0,0.0,0.0,0.0,0.0,0
-1.0,6.0,11.0,18.0,-5.0,-1.0,5.0,-2.0,0.0,0.0,0.0,0.0,0.0,0.0,0.0,0.0,0
-8.0,4.0,22.0,15.0,-2.0,2.0,14.0,0.0,0.0,0.0,0.0,0.0,0.0,0.0,0.0,0.0,0
-19.0,11.0,29.0,10.0,8.0,6.0,20.0,-3.0,0.0,0.0,0.0,0.0,0.0,0.0,0.0,0.0,0
-25.0,14.0,23.0,-1.0,7.0,4.0,12.0,-10.0,0.0,0.0,0.0,0.0,0.0,0.0,0.0,0.0,0
-31.0,9.0,11.0,-11.0,7.0,-1.0,18.0,-16.0,0.0,0.0,0.0,0.0,0.0,0.0,0.0,0.0,0
-36.0,-6.0,-6.0,-15.0,-2.0,-5.0,19.0,-13.0,0.0,0.0,0.0,0.0,0.0,0.0,0.0,0.0,0
-14.0,-13.0,-12.0,-16.0,-2.0,-7.0,15.0,-5.0,0.0,0.0,0.0,0.0,0.0,0.0,0.0,0.0,0
-6.0,-10.0,-4.0,-13.0,-3.0,-8.0,12.0,-6.0,0.0,0.0,0.0,0.0,0.0,0.0,0.0,0.0,0
1.0,2.0,5.0,-7.0,-4.0,-4.0,4.0,-6.0,0.0,0.0,0.0,0.0,0.0,0.0,0.0,0.0,0
9.0,8.0,9.0,-9.0,-5.0,-4.0,0.0,-9.0,0.0,0.0,0.0,0.0,0.0,0.0,0.0,0.0,0
8.0,12.0,14.0,6.0,-1.0,-4.0,-11.0,-4.0,0.0,0.0,0.0,0.0,0.0,0.0,0.0,0.0,0
10.0,11.0,9.0,10.0,-3.0,-4.0,-12.0,5.0,0.0,0.0,0.0,0.0,0.0,0.0,0.0,0.0,0
7.0,6.0,-3.0,4.0,-2.0,-12.0,-11.0,-2.0,0.0,0.0,0.0,0.0,0.0,0.0,0.0,0.0,0
5.0,-5.0,-14.0,-9.0,-8.0,-7.0,-15.0,-5.0,0.0,0.0,0.0,0.0,0.0,0.0,0.0,0.0,0
12.0,-18.0,-28.0,-13.0,-11.0,-4.0,-29.0,4.0,0.0,0.0,0.0,0.0,0.0,0.0,0.0,0.0,0
-6.0,-33.0,-41.0,-12.0,-4.0,-4.0,-26.0,10.0,0.0,0.0,0.0,0.0,0.0,0.0,0.0,0.0,0
-14.0,-33.0,-35.0,-5.0,-1.0,-3.0,-19.0,11.0,0.0,0.0,0.0,0.0,0.0,0.0,0.0,0.0,0
10.0,-21.0,-17.0,3.0,-3.0,-7.0,-15.0,4.0,0.0,0.0,0.0,0.0,0.0,0.0,0.0,0.0,0
24.0,-8.0,-7.0,7.0,2.0,2.0,-15.0,7.0,0.0,0.0,0.0,0.0,0.0,0.0,0.0,0.0,0
25.0,7.0,3.0,8.0,1.0,4.0,-7.0,4.0,0.0,0.0,0.0,0.0,0.0,0.0,0.0,0.0,0
19.0,10.0,7.0,6.0,1.0,1.0,-3.0,1.0,0.0,0.0,0.0,0.0,0.0,0.0,0.0,0.0,0
-7.0,12.0,19.0,3.0,5.0,3.0,9.0,-5.0,0.0,0.0,0.0,0.0,0.0,0.0,0.0,0.0,0
-20.0,9.0,15.0,-2.0,-1.0,0.0,19.0,-9.0,0.0,0.0,0.0,0.0,0.0,0.0,0.0,0.0,0
-27.0,1.0,14.0,-8.0,5.0,-5.0,16.0,-12.0,0.0,0.0,0.0,0.0,0.0,0.0,0.0,0.0,0
-35.0,2.0,21.0,-7.0,-1.0,-1.0,21.0,-14.0,0.0,0.0,0.0,0.0,0.0,0.0,0.0,0.0,0
-38.0,7.0,16.0,2.0,9.0,-3.0,20.0,-16.0,0.0,0.0,0.0,0.0,0.0,0.0,0.0,0.0,0
-19.0,-2.0,3.0,-3.0,5.0,-11.0,7.0,-9.0,0.0,0.0,0.0,0.0,0.0,0.0,0.0,0.0,0
-9.0,3.0,-6.0,-4.0,-8.0,-11.0,5.0,-2.0,0.0,0.0,0.0,0.0,0.0,0.0,0.0,0.0,0
-11.0,-6.0,0.0,-9.0,-16.0,-5.0,5.0,-9.0,0.0,0.0,0.0,0.0,0.0,0.0,0.0,0.0,0
-10.0,-4.0,-3.0,0.0,-14.0,1.0,0.0,-6.0,0.0,0.0,0.0,0.0,0.0,0.0,0.0,0.0,0
1.0,0.0,3.0,4.0,-5.0,0.0,-12.0,-1.0,0.0,0.0,0.0,0.0,0.0,0.0,0.0,0.0,0
9.0,-3.0,-2.0,-6.0,-1.0,-5.0,-10.0,3.0,0.0,0.0,0.0,0.0,0.0,0.0,0.0,0.0,0
13.0,4.0,-7.0,-3.0,1.0,-8.0,-5.0,2.0,0.0,0.0,0.0,0.0,0.0,0.0,0.0,0.0,0
19.0,5.0,1.0,-4.0,-3.0,-5.0,-11.0,0.0,0.0,0.0,0.0,0.0,0.0,0.0,0.0,0.0,0
25.0,-8.0,-16.0,-11.0,-4.0,-6.0,-25.0,3.0,0.0,0.0,0.0,0.0,0.0,0.0,0.0,0.0,0
17.0,-13.0,-29.0,-14.0,-7.0,2.0,-25.0,6.0,0.0,0.0,0.0,0.0,0.0,0.0,0.0,0.0,0
3.0,-14.0,-26.0,-9.0,-1.0,0.0,-15.0,1.0,0.0,0.0,0.0,0.0,0.0,0.0,0.0,0.0,0
14.0,-19.0,-27.0,-14.0,-3.0,-3.0,-14.0,7.0,0.0,0.0,0.0,0.0,0.0,0.0,0.0,0.0,0
10.0,-20.0,-28.0,-6.0,-4.0,-3.0,-14.0,7.0,0.0,0.0,0.0,0.0,0.0,0.0,0.0,0.0,0
-3.0,-16.0,-10.0,5.0,3.0,2.0,-9.0,3.0,0.0,0.0,0.0,0.0,0.0,0.0,0.0,0.0,0
-12.0,-10.0,-2.0,7.0,2.0,2.0,-14.0,2.0,0.0,0.0,0.0,0.0,0.0,0.0,0.0,0.0,0
-27.0,-5.0,5.0,9.0,6.0,4.0,8.0,-9.0,0.0,0.0,0.0,0.0,0.0,0.0,0.0,0.0,0
-21.0,4.0,21.0,13.0,4.0,3.0,18.0,-16.0,0.0,0.0,0.0,0.0,0.0,0.0,0.0,0.0,0
-12.0,21.0,29.0,8.0,-1.0,4.0,15.0,-14.0,0.0,0.0,0.0,0.0,0.0,0.0,0.0,0.0,0
-6.0,28.0,32.0,8.0,-6.0,0.0,31.0,-8.0,0.0,0.0,0.0,0.0,0.0,0.0,0.0,0.0,0
-12.0,24.0,33.0,8.0,-4.0,-9.0,21.0,-3.0,0.0,0.0,0.0,0.0,0.0,0.0,0.0,0.0,0
-21.0,15.0,14.0,3.0,3.0,-15.0,12.0,-5.0,0.0,0.0,0.0,0.0,0.0,0.0,0.0,0.0,0
-22.0,5.0,10.0,-6.0,2.0,-2.0,8.0,-9.0,0.0,0.0,0.0,0.0,0.0,0.0,0.0,0.0,0
-18.0,-6.0,3.0,-4.0,-1.0,2.0,0.0,-7.0,0.0,0.0,0.0,0.0,0.0,0.0,0.0,0.0,0
-11.0,-9.0,-7.0,-12.0,-7.0,-4.0,-1.0,-7.0,0.0,0.0,0.0,0.0,0.0,0.0,0.0,0.0,0
4.0,-12.0,-26.0,-22.0,-10.0,-6.0,-9.0,-4.0,0.0,0.0,0.0,0.0,0.0,0.0,0.0,0.0,0
-3.0,-22.0,-43.0,-28.0,-8.0,-3.0,-8.0,-3.0,0.0,0.0,0.0,0.0,0.0,0.0,0.0,0.0,0
3.0,-32.0,-29.0,-19.0,-3.0,-7.0,-14.0,3.0,0.0,0.0,0.0,0.0,0.0,0.0,0.0,0.0,0
37.0,-19.0,-26.0,-19.0,-3.0,-4.0,-16.0,-3.0,0.0,0.0,0.0,0.0,0.0,0.0,0.0,0.0,0
54.0,-7.0,-20.0,-12.0,-4.0,-8.0,-28.0,5.0,0.0,0.0,0.0,0.0,0.0,0.0,0.0,0.0,0
21.0,9.0,5.0,6.0,-4.0,-8.0,-22.0,8.0,0.0,0.0,0.0,0.0,0.0,0.0,0.0,0.0,0
-13.0,22.0,25.0,13.0,-3.0,-11.0,-10.0,3.0,0.0,0.0,0.0,0.0,0.0,0.0,0.0,0.0,0
2.0,10.0,17.0,23.0,-4.0,-2.0,-19.0,3.0,0.0,0.0,0.0,0.0,0.0,0.0,0.0,0.0,0
7.0,-4.0,-14.0,18.0,3.0,8.0,-21.0,7.0,0.0,0.0,0.0,0.0,0.0,0.0,0.0,0.0,0
-5.0,-13.0,-31.0,10.0,5.0,8.0,-8.0,4.0,0.0,0.0,0.0,0.0,0.0,0.0,0.0,0.0,0
-5.0,-10.0,-25.0,2.0,1.0,3.0,-1.0,5.0,0.0,0.0,0.0,0.0,0.0,0.0,0.0,0.0,0
-11.0,-9.0,-12.0,-3.0,1.0,5.0,10.0,-3.0,0.0,0.0,0.0,0.0,0.0,0.0,0.0,0.0,0
-19.0,-10.0,-5.0,-8.0,-1.0,-5.0,12.0,-8.0,0.0,0.0,0.0,0.0,0.0,0.0,0.0,0.0,0
-27.0,-10.0,17.0,-3.0,3.0,-1.0,20.0,-12.0,0.0,0.0,0.0,0.0,0.0,0.0,0.0,0.0,0
-37.0,-6.0,39.0,7.0,1.0,1.0,20.0,-9.0,0.0,0.0,0.0,0.0,0.0,0.0,0.0,0.0,0
-26.0,-1.0,42.0,5.0,4.0,-4.0,18.0,-14.0,0.0,0.0,0.0,0.0,0.0,0.0,0.0,0.0,0
-9.0,14.0,24.0,-4.0,-1.0,-4.0,12.0,-13.0,0.0,0.0,0.0,0.0,0.0,0.0,0.0,0.0,0
2.0,26.0,12.0,-10.0,-8.0,-8.0,11.0,-13.0,0.0,0.0,0.0,0.0,0.0,0.0,0.0,0.0,0
-1.0,19.0,2.0,-14.0,-9.0,-12.0,-2.0,-8.0,0.0,0.0,0.0,0.0,0.0,0.0,0.0,0.0,0
0.0,16.0,-5.0,-14.0,-3.0,-1.0,-2.0,2.0,0.0,0.0,0.0,0.0,0.0,0.0,0.0,0.0,0
10.0,6.0,-19.0,-13.0,-2.0,-6.0,-2.0,2.0,0.0,0.0,0.0,0.0,0.0,0.0,0.0,0.0,0
7.0,-8.0,-30.0,-14.0,-6.0,-8.0,1.0,6.0,0.0,0.0,0.0,0.0,0.0,0.0,0.0,0.0,0
2.0,-17.0,-25.0,-6.0,-7.0,-6.0,-8.0,0.0,0.0,0.0,0.0,0.0,0.0,0.0,0.0,0.0,0
4.0,-25.0,-14.0,1.0,-1.0,2.0,-24.0,-4.0,0.0,0.0,0.0,0.0,0.0,0.0,0.0,0.0,0
15.0,-25.0,-24.0,7.0,-9.0,1.0,-32.0,-1.0,0.0,0.0,0.0,0.0,0.0,0.0,0.0,0.0,0
14.0,-25.0,-14.0,3.0,-7.0,-7.0,-19.0,3.0,0.0,0.0,0.0,0.0,0.0,0.0,0.0,0.0,0
-8.0,-27.0,-5.0,-7.0,-9.0,-12.0,-19.0,0.0,0.0,0.0,0.0,0.0,0.0,0.0,0.0,0.0,0
-12.0,-16.0,-17.0,0.0,-3.0,0.0,-25.0,8.0,0.0,0.0,0.0,0.0,0.0,0.0,0.0,0.0,0
22.0,21.0,-8.0,10.0,3.0,8.0,-21.0,11.0,0.0,0.0,0.0,0.0,0.0,0.0,0.0,0.0,0
38.0,45.0,13.0,6.0,-1.0,9.0,-6.0,9.0,0.0,0.0,0.0,0.0,0.0,0.0,0.0,0.0,0
34.0,35.0,15.0,-1.0,3.0,-3.0,-2.0,1.0,0.0,0.0,0.0,0.0,0.0,0.0,0.0,0.0,0
17.0,9.0,17.0,-2.0,9.0,-3.0,13.0,-11.0,0.0,0.0,0.0,0.0,0.0,0.0,0.0,0.0,0
-20.0,-5.0,-6.0,-14.0,6.0,-6.0,16.0,-13.0,0.0,0.0,0.0,0.0,0.0,0.0,0.0,0.0,0
-48.0,-23.0,-22.0,-16.0,-3.0,-1.0,18.0,-10.0,0.0,0.0,0.0,0.0,0.0,0.0,0.0,0.0,0
-67.0,-38.0,-2.0,-8.0,-1.0,0.0,23.0,-12.0,0.0,0.0,0.0,0.0,0.0,0.0,0.0,0.0,0
-56.0,-34.0,19.0,6.0,4.0,5.0,25.0,-6.0,0.0,0.0,0.0,0.0,0.0,0.0,0.0,0.0,0
-25.0,-10.0,25.0,11.0,0.0,2.0,17.0,-1.0,0.0,0.0,0.0,0.0,0.0,0.0,0.0,0.0,0
-18.0,6.0,16.0,3.0,-8.0,-1.0,11.0,-3.0,0.0,0.0,0.0,0.0,0.0,0.0,0.0,0.0,0
-20.0,14.0,8.0,-5.0,-10.0,-12.0,2.0,-12.0,0.0,0.0,0.0,0.0,0.0,0.0,0.0,0.0,0
9.0,29.0,3.0,-5.0,-11.0,-12.0,-9.0,-7.0,0.0,0.0,0.0,0.0,0.0,0.0,0.0,0.0,0
47.0,33.0,-1.0,-4.0,-8.0,-9.0,-17.0,-3.0,0.0,0.0,0.0,0.0,0.0,0.0,0.0,0.0,0
53.0,34.0,-7.0,-4.0,-6.0,-9.0,-12.0,-1.0,0.0,0.0,0.0,0.0,0.0,0.0,0.0,0.0,0
28.0,10.0,-13.0,-5.0,4.0,-2.0,-6.0,-2.0,0.0,0.0,0.0,0.0,0.0,0.0,0.0,0.0,0
-5.0,-22.0,-9.0,-5.0,3.0,0.0,-14.0,4.0,0.0,0.0,0.0,0.0,0.0,0.0,0.0,0.0,0
-10.0,-34.0,-16.0,-11.0,-2.0,1.0,-22.0,4.0,0.0,0.0,0.0,0.0,0.0,0.0,0.0,0.0,0
-9.0,-36.0,-21.0,-11.0,-4.0,2.0,-16.0,3.0,0.0,0.0,0.0,0.0,0.0,0.0,0.0,0.0,0
-12.0,-40.0,-33.0,-6.0,-11.0,-10.0,-14.0,4.0,0.0,0.0,0.0,0.0,0.0,0.0,0.0,0.0,0
11.0,-29.0,-43.0,-6.0,-9.0,-3.0,-24.0,7.0,0.0,0.0,0.0,0.0,0.0,0.0,0.0,0.0,0
16.0,-21.0,-24.0,-4.0,-6.0,0.0,-19.0,2.0,0.0,0.0,0.0,0.0,0.0,0.0,0.0,0.0,0
2.0,-27.0,-6.0,3.0,-2.0,0.0,-10.0,6.0,0.0,0.0,0.0,0.0,0.0,0.0,0.0,0.0,0
-8.0,-30.0,-2.0,11.0,2.0,0.0,-3.0,4.0,0.0,0.0,0.0,0.0,0.0,0.0,0.0,0.0,0
-5.0,-5.0,6.0,15.0,9.0,2.0,9.0,-4.0,0.0,0.0,0.0,0.0,0.0,0.0,0.0,0.0,0
3.0,61.0,22.0,11.0,1.0,2.0,16.0,-9.0,0.0,0.0,0.0,0.0,0.0,0.0,0.0,0.0,0
0.0,99.0,41.0,4.0,2.0,4.0,23.0,-10.0,0.0,0.0,0.0,0.0,0.0,0.0,0.0,0.0,0
-16.0,77.0,47.0,9.0,5.0,7.0,30.0,-12.0,0.0,0.0,0.0,0.0,0.0,0.0,0.0,0.0,0
-26.0,29.0,37.0,1.0,0.0,0.0,22.0,-14.0,0.0,0.0,0.0,0.0,0.0,0.0,0.0,0.0,0
-20.0,-10.0,16.0,-5.0,2.0,-9.0,7.0,-9.0,0.0,0.0,0.0,0.0,0.0,0.0,0.0,0.0,0
-20.0,-40.0,-9.0,-10.0,0.0,-11.0,13.0,-10.0,0.0,0.0,0.0,0.0,0.0,0.0,0.0,0.0,0
-30.0,-60.0,-14.0,-21.0,-5.0,-13.0,5.0,-5.0,0.0,0.0,0.0,0.0,0.0,0.0,0.0,0.0,0
-24.0,-55.0,-20.0,-25.0,-11.0,-5.0,-8.0,-4.0,0.0,0.0,0.0,0.0,0.0,0.0,0.0,0.0,0
-12.0,-48.0,-19.0,-17.0,-12.0,0.0,-19.0,-6.0,0.0,0.0,0.0,0.0,0.0,0.0,0.0,0.0,0
18.0,-17.0,-20.0,-5.0,-6.0,-1.0,-6.0,0.0,0.0,0.0,0.0,0.0,0.0,0.0,0.0,0.0,0
33.0,7.0,-19.0,-1.0,0.0,-3.0,0.0,4.0,0.0,0.0,0.0,0.0,0.0,0.0,0.0,0.0,0
23.0,17.0,-10.0,2.0,-3.0,-4.0,-14.0,5.0,0.0,0.0,0.0,0.0,0.0,0.0,0.0,0.0,0
21.0,19.0,-11.0,2.0,-7.0,-4.0,-25.0,6.0,0.0,0.0,0.0,0.0,0.0,0.0,0.0,0.0,0
8.0,6.0,-7.0,6.0,-4.0,-4.0,-26.0,5.0,0.0,0.0,0.0,0.0,0.0,0.0,0.0,0.0,0
-1.0,4.0,-5.0,7.0,-3.0,-1.0,-13.0,1.0,0.0,0.0,0.0,0.0,0.0,0.0,0.0,0.0,0
12.0,-1.0,-15.0,-2.0,-6.0,-7.0,-25.0,5.0,0.0,0.0,0.0,0.0,0.0,0.0,0.0,0.0,0
12.0,-10.0,-20.0,-7.0,4.0,0.0,-19.0,8.0,0.0,0.0,0.0,0.0,0.0,0.0,0.0,0.0,0
8.0,-8.0,0.0,-3.0,4.0,0.0,-4.0,2.0,0.0,0.0,0.0,0.0,0.0,0.0,0.0,0.0,0
3.0,0.0,-5.0,3.0,-4.0,2.0,-5.0,2.0,0.0,0.0,0.0,0.0,0.0,0.0,0.0,0.0,0
-5.0,-12.0,2.0,6.0,1.0,4.0,12.0,-6.0,0.0,0.0,0.0,0.0,0.0,0.0,0.0,0.0,0
-20.0,-13.0,17.0,5.0,6.0,4.0,18.0,-10.0,0.0,0.0,0.0,0.0,0.0,0.0,0.0,0.0,0
-28.0,-6.0,17.0,4.0,4.0,2.0,21.0,-8.0,0.0,0.0,0.0,0.0,0.0,0.0,0.0,0.0,0
-32.0,5.0,19.0,0.0,6.0,-1.0,25.0,-10.0,0.0,0.0,0.0,0.0,0.0,0.0,0.0,0.0,0
-24.0,6.0,17.0,-4.0,-6.0,-3.0,20.0,-10.0,0.0,0.0,0.0,0.0,0.0,0.0,0.0,0.0,0
-18.0,14.0,9.0,-5.0,-9.0,-6.0,7.0,-10.0,0.0,0.0,0.0,0.0,0.0,0.0,0.0,0.0,0
-20.0,21.0,19.0,-2.0,-4.0,-5.0,4.0,-9.0,0.0,0.0,0.0,0.0,0.0,0.0,0.0,0.0,0
-10.0,9.0,5.0,-8.0,-7.0,1.0,2.0,-8.0,0.0,0.0,0.0,0.0,0.0,0.0,0.0,0.0,0
-9.0,0.0,-11.0,-7.0,-9.0,-6.0,-3.0,-2.0,0.0,0.0,0.0,0.0,0.0,0.0,0.0,0.0,0
6.0,-2.0,-8.0,-4.0,-5.0,-13.0,-7.0,-5.0,0.0,0.0,0.0,0.0,0.0,0.0,0.0,0.0,0
10.0,-12.0,-15.0,-8.0,2.0,-3.0,-8.0,-3.0,0.0,0.0,0.0,0.0,0.0,0.0,0.0,0.0,0
10.0,-12.0,-22.0,-13.0,1.0,-3.0,-3.0,0.0,0.0,0.0,0.0,0.0,0.0,0.0,0.0,0.0,0
14.0,-12.0,-29.0,-17.0,-2.0,-7.0,-10.0,4.0,0.0,0.0,0.0,0.0,0.0,0.0,0.0,0.0,0
23.0,-14.0,-36.0,-16.0,-10.0,-7.0,-29.0,14.0,0.0,0.0,0.0,0.0,0.0,0.0,0.0,0.0,0
15.0,-6.0,-19.0,-6.0,-11.0,-8.0,-20.0,2.0,0.0,0.0,0.0,0.0,0.0,0.0,0.0,0.0,0
2.0,-7.0,-1.0,7.0,-5.0,2.0,-12.0,-1.0,0.0,0.0,0.0,0.0,0.0,0.0,0.0,0.0,0
8.0,-10.0,6.0,19.0,3.0,0.0,-29.0,6.0,0.0,0.0,0.0,0.0,0.0,0.0,0.0,0.0,0
13.0,-7.0,3.0,20.0,12.0,2.0,-19.0,5.0,0.0,0.0,0.0,0.0,0.0,0.0,0.0,0.0,0
0.0,-5.0,0.0,20.0,5.0,6.0,-9.0,3.0,0.0,0.0,0.0,0.0,0.0,0.0,0.0,0.0,0
-3.0,-2.0,-2.0,5.0,-6.0,3.0,-3.0,3.0,0.0,0.0,0.0,0.0,0.0,0.0,0.0,0.0,0
-5.0,-5.0,0.0,0.0,-8.0,-1.0,6.0,-6.0,0.0,0.0,0.0,0.0,0.0,0.0,0.0,0.0,0
-21.0,-7.0,-4.0,-17.0,-7.0,-9.0,19.0,-2.0,0.0,0.0,0.0,0.0,0.0,0.0,0.0,0.0,0
-24.0,-2.0,-3.0,-23.0,-1.0,-3.0,22.0,-1.0,0.0,0.0,0.0,0.0,0.0,0.0,0.0,0.0,0
-27.0,10.0,18.0,-15.0,3.0,-4.0,22.0,-12.0,0.0,0.0,0.0,0.0,0.0,0.0,0.0,0.0,0
-20.0,17.0,32.0,-8.0,1.0,-3.0,17.0,-20.0,0.0,0.0,0.0,0.0,0.0,0.0,0.0,0.0,0
-6.0,11.0,19.0,-4.0,1.0,-2.0,9.0,-18.0,0.0,0.0,0.0,0.0,0.0,0.0,0.0,0.0,0
-12.0,12.0,7.0,6.0,-1.0,1.0,9.0,-12.0,0.0,0.0,0.0,0.0,0.0,0.0,0.0,0.0,0
-10.0,15.0,7.0,2.0,-2.0,1.0,7.0,-6.0,0.0,0.0,0.0,0.0,0.0,0.0,0.0,0.0,0
-12.0,2.0,3.0,-4.0,-5.0,-3.0,1.0,-4.0,0.0,0.0,0.0,0.0,0.0,0.0,0.0,0.0,0
-9.0,-10.0,-13.0,-8.0,0.0,-12.0,-7.0,0.0,0.0,0.0,0.0,0.0,0.0,0.0,0.0,0.0,0
8.0,-15.0,-17.0,0.0,4.0,-5.0,-14.0,1.0,0.0,0.0,0.0,0.0,0.0,0.0,0.0,0.0,0
3.0,-18.0,-12.0,2.0,1.0,-4.0,-12.0,1.0,0.0,0.0,0.0,0.0,0.0,0.0,0.0,0.0,0
-4.0,-21.0,-13.0,1.0,-5.0,-1.0,-15.0,4.0,0.0,0.0,0.0,0.0,0.0,0.0,0.0,0.0,0
16.0,-16.0,-22.0,1.0,-8.0,-4.0,-28.0,11.0,0.0,0.0,0.0,0.0,0.0,0.0,0.0,0.0,0
29.0,-8.0,-22.0,0.0,-13.0,-6.0,-26.0,7.0,0.0,0.0,0.0,0.0,0.0,0.0,0.0,0.0,0
31.0,3.0,-14.0,-9.0,-12.0,1.0,-14.0,0.0,0.0,0.0,0.0,0.0,0.0,0.0,0.0,0.0,0
24.0,2.0,-24.0,-15.0,-20.0,-6.0,-8.0,3.0,0.0,0.0,0.0,0.0,0.0,0.0,0.0,0.0,0
10.0,-3.0,-8.0,-6.0,-11.0,-2.0,-19.0,3.0,0.0,0.0,0.0,0.0,0.0,0.0,0.0,0.0,0
-5.0,-10.0,8.0,-5.0,-2.0,-3.0,-11.0,4.0,0.0,0.0,0.0,0.0,0.0,0.0,0.0,0.0,0
-14.0,-13.0,2.0,-7.0,-2.0,-6.0,1.0,-6.0,0.0,0.0,0.0,0.0,0.0,0.0,0.0,0.0,0
-27.0,-18.0,13.0,0.0,5.0,-5.0,1.0,-5.0,0.0,0.0,0.0,0.0,0.0,0.0,0.0,0.0,0
-29.0,-12.0,11.0,2.0,6.0,3.0,13.0,-6.0,0.0,0.0,0.0,0.0,0.0,0.0,0.0,0.0,0
-36.0,-1.0,16.0,7.0,14.0,7.0,18.0,-5.0,0.0,0.0,0.0,0.0,0.0,0.0,0.0,0.0,0
-34.0,7.0,13.0,3.0,5.0,7.0,23.0,-11.0,0.0,0.0,0.0,0.0,0.0,0.0,0.0,0.0,0
-16.0,24.0,-10.0,-9.0,0.0,-4.0,22.0,-17.0,0.0,0.0,0.0,0.0,0.0,0.0,0.0,0.0,0
35.0,52.0,-11.0,-6.0,-2.0,-7.0,6.0,-9.0,0.0,0.0,0.0,0.0,0.0,0.0,0.0,0.0,0
51.0,58.0,6.0,2.0,-1.0,0.0,5.0,-6.0,0.0,0.0,0.0,0.0,0.0,0.0,0.0,0.0,0
25.0,31.0,13.0,1.0,-9.0,-6.0,8.0,-4.0,0.0,0.0,0.0,0.0,0.0,0.0,0.0,0.0,0
-19.0,-22.0,11.0,-4.0,-4.0,-1.0,6.0,-4.0,0.0,0.0,0.0,0.0,0.0,0.0,0.0,0.0,0
-54.0,-60.0,9.0,-7.0,-3.0,-9.0,-12.0,-6.0,0.0,0.0,0.0,0.0,0.0,0.0,0.0,0.0,0
-65.0,-69.0,5.0,-2.0,-7.0,-15.0,-10.0,-2.0,0.0,0.0,0.0,0.0,0.0,0.0,0.0,0.0,0
-45.0,-56.0,-3.0,-6.0,2.0,-6.0,-7.0,1.0,0.0,0.0,0.0,0.0,0.0,0.0,0.0,0.0,0
-1.0,-11.0,-4.0,-5.0,-6.0,2.0,-18.0,3.0,0.0,0.0,0.0,0.0,0.0,0.0,0.0,0.0,0
35.0,16.0,-20.0,-8.0,-13.0,5.0,-30.0,5.0,0.0,0.0,0.0,0.0,0.0,0.0,0.0,0.0,0
43.0,17.0,-36.0,-6.0,-5.0,2.0,-21.0,3.0,0.0,0.0,0.0,0.0,0.0,0.0,0.0,0.0,0
39.0,20.0,-39.0,-8.0,-8.0,0.0,-6.0,-1.0,0.0,0.0,0.0,0.0,0.0,0.0,0.0,0.0,0
42.0,17.0,-30.0,-2.0,-6.0,1.0,-20.0,5.0,0.0,0.0,0.0,0.0,0.0,0.0,0.0,0.0,0
33.0,4.0,-18.0,7.0,2.0,-1.0,-17.0,7.0,0.0,0.0,0.0,0.0,0.0,0.0,0.0,0.0,0
19.0,7.0,6.0,11.0,1.0,-1.0,-8.0,6.0,0.0,0.0,0.0,0.0,0.0,0.0,0.0,0.0,0
8.0,2.0,20.0,6.0,-3.0,-4.0,-2.0,3.0,0.0,0.0,0.0,0.0,0.0,0.0,0.0,0.0,0
-16.0,-12.0,22.0,1.0,1.0,-4.0,8.0,-4.0,0.0,0.0,0.0,0.0,0.0,0.0,0.0,0.0,0
-46.0,-21.0,19.0,-3.0,-1.0,4.0,10.0,-10.0,0.0,0.0,0.0,0.0,0.0,0.0,0.0,0.0,0
-50.0,-17.0,21.0,-3.0,2.0,-2.0,12.0,-7.0,0.0,0.0,0.0,0.0,0.0,0.0,0.0,0.0,0
-46.0,-7.0,23.0,8.0,0.0,-4.0,22.0,-5.0,0.0,0.0,0.0,0.0,0.0,0.0,0.0,0.0,0
-35.0,4.0,17.0,-2.0,4.0,-12.0,24.0,-14.0,0.0,0.0,0.0,0.0,0.0,0.0,0.0,0.0,0
-11.0,19.0,-3.0,-7.0,6.0,-3.0,15.0,-12.0,0.0,0.0,0.0,0.0,0.0,0.0,0.0,0.0,0
-2.0,18.0,-6.0,-5.0,0.0,5.0,13.0,-9.0,0.0,0.0,0.0,0.0,0.0,0.0,0.0,0.0,0
-2.0,10.0,-9.0,-11.0,-5.0,2.0,5.0,-14.0,0.0,0.0,0.0,0.0,0.0,0.0,0.0,0.0,0
3.0,2.0,-12.0,-26.0,-16.0,-3.0,-2.0,-8.0,0.0,0.0,0.0,0.0,0.0,0.0,0.0,0.0,0
9.0,1.0,-24.0,-22.0,-18.0,-5.0,-9.0,-7.0,0.0,0.0,0.0,0.0,0.0,0.0,0.0,0.0,0
6.0,-10.0,-20.0,-8.0,-13.0,-11.0,-9.0,-2.0,0.0,0.0,0.0,0.0,0.0,0.0,0.0,0.0,0
-6.0,-14.0,-10.0,2.0,-3.0,-11.0,-12.0,3.0,0.0,0.0,0.0,0.0,0.0,0.0,0.0,0.0,0
1.0,-7.0,-4.0,8.0,3.0,-9.0,-20.0,3.0,0.0,0.0,0.0,0.0,0.0,0.0,0.0,0.0,0
32.0,-6.0,-2.0,13.0,7.0,-1.0,-33.0,3.0,0.0,0.0,0.0,0.0,0.0,0.0,0.0,0.0,0
31.0,-5.0,5.0,15.0,9.0,2.0,-28.0,9.0,0.0,0.0,0.0,0.0,0.0,0.0,0.0,0.0,0
15.0,-6.0,-2.0,8.0,-2.0,3.0,-9.0,6.0,0.0,0.0,0.0,0.0,0.0,0.0,0.0,0.0,0
9.0,-10.0,-21.0,-5.0,-13.0,1.0,-12.0,7.0,0.0,0.0,0.0,0.0,0.0,0.0,0.0,0.0,0
0.0,-13.0,-34.0,-4.0,-15.0,-4.0,-20.0,9.0,0.0,0.0,0.0,0.0,0.0,0.0,0.0,0.0,0
-12.0,-15.0,-25.0,8.0,2.0,-2.0,-9.0,2.0,0.0,0.0,0.0,0.0,0.0,0.0,0.0,0.0,0
-15.0,-13.0,-7.0,10.0,5.0,11.0,-1.0,-2.0,0.0,0.0,0.0,0.0,0.0,0.0,0.0,0.0,0
-14.0,-1.0,20.0,5.0,6.0,4.0,10.0,-7.0,0.0,0.0,0.0,0.0,0.0,0.0,0.0,0.0,0
-5.0,16.0,31.0,1.0,5.0,-2.0,13.0,-3.0,0.0,0.0,0.0,0.0,0.0,0.0,0.0,0.0,0
-5.0,26.0,35.0,-1.0,-1.0,-6.0,9.0,-8.0,0.0,0.0,0.0,0.0,0.0,0.0,0.0,0.0,0
-29.0,9.0,28.0,-15.0,-2.0,-3.0,23.0,-19.0,0.0,0.0,0.0,0.0,0.0,0.0,0.0,0.0,0
-39.0,0.0,7.0,-24.0,-7.0,-7.0,25.0,-14.0,0.0,0.0,0.0,0.0,0.0,0.0,0.0,0.0,0
-12.0,6.0,0.0,-25.0,-8.0,-8.0,7.0,-4.0,0.0,0.0,0.0,0.0,0.0,0.0,0.0,0.0,0
-11.0,0.0,-27.0,-29.0,-11.0,-5.0,6.0,-2.0,0.0,0.0,0.0,0.0,0.0,0.0,0.0,0.0,0
-20.0,-23.0,-43.0,-34.0,-7.0,-4.0,4.0,-4.0,0.0,0.0,0.0,0.0,0.0,0.0,0.0,0.0,0
-10.0,-19.0,-35.0,-13.0,0.0,-5.0,7.0,-8.0,0.0,0.0,0.0,0.0,0.0,0.0,0.0,0.0,0
7.0,-8.0,-15.0,8.0,-2.0,-7.0,-2.0,-10.0,0.0,0.0,0.0,0.0,0.0,0.0,0.0,0.0,0
16.0,-11.0,9.0,31.0,8.0,-2.0,-8.0,-10.0,0.0,0.0,0.0,0.0,0.0,0.0,0.0,0.0,0
16.0,-7.0,26.0,37.0,14.0,3.0,-8.0,2.0,0.0,0.0,0.0,0.0,0.0,0.0,0.0,0.0,0
16.0,-15.0,24.0,31.0,6.0,3.0,-16.0,1.0,0.0,0.0,0.0,0.0,0.0,0.0,0.0,0.0,0
17.0,-16.0,9.0,9.0,-4.0,-2.0,-31.0,1.0,0.0,0.0,0.0,0.0,0.0,0.0,0.0,0.0,0
22.0,19.0,5.0,6.0,-2.0,-8.0,-24.0,8.0,0.0,0.0,0.0,0.0,0.0,0.0,0.0,0.0,0
18.0,62.0,12.0,3.0,-5.0,-4.0,-17.0,9.0,0.0,0.0,0.0,0.0,0.0,0.0,0.0,0.0,0
5.0,41.0,-6.0,-17.0,-12.0,-4.0,-21.0,12.0,0.0,0.0,0.0,0.0,0.0,0.0,0.0,0.0,0
-12.0,-8.0,-24.0,-20.0,-17.0,-8.0,-17.0,10.0,0.0,0.0,0.0,0.0,0.0,0.0,0.0,0.0,0
-1.0,-29.0,-37.0,-22.0,-12.0,-3.0,-4.0,7.0,0.0,0.0,0.0,0.0,0.0,0.0,0.0,0.0,0
0.0,-42.0,-37.0,-31.0,-14.0,0.0,-1.0,3.0,0.0,0.0,0.0,0.0,0.0,0.0,0.0,0.0,0
-14.0,-44.0,-26.0,-15.0,-3.0,9.0,4.0,-11.0,0.0,0.0,0.0,0.0,0.0,0.0,0.0,0.0,0
-17.0,-34.0,-15.0,-2.0,6.0,3.0,12.0,-12.0,0.0,0.0,0.0,0.0,0.0,0.0,0.0,0.0,0
-8.0,-15.0,0.0,9.0,17.0,5.0,18.0,-8.0,0.0,0.0,0.0,0.0,0.0,0.0,0.0,0.0,0
-22.0,-1.0,19.0,17.0,12.0,1.0,26.0,-18.0,0.0,0.0,0.0,0.0,0.0,0.0,0.0,0.0,0
-37.0,13.0,20.0,9.0,5.0,-7.0,17.0,-21.0,0.0,0.0,0.0,0.0,0.0,0.0,0.0,0.0,0
-25.0,25.0,19.0,0.0,1.0,-10.0,17.0,-15.0,0.0,0.0,0.0,0.0,0.0,0.0,0.0,0.0,0
-16.0,25.0,31.0,5.0,-3.0,-2.0,15.0,-7.0,0.0,0.0,0.0,0.0,0.0,0.0,0.0,0.0,0
-8.0,28.0,34.0,1.0,-8.0,3.0,6.0,-5.0,0.0,0.0,0.0,0.0,0.0,0.0,0.0,0.0,0
-1.0,15.0,26.0,4.0,-10.0,-7.0,0.0,0.0,0.0,0.0,0.0,0.0,0.0,0.0,0.0,0.0,0
9.0,-8.0,7.0,-5.0,-5.0,-8.0,-15.0,6.0,0.0,0.0,0.0,0.0,0.0,0.0,0.0,0.0,0
6.0,-28.0,-9.0,-14.0,-6.0,-9.0,-14.0,-5.0,0.0,0.0,0.0,0.0,0.0,0.0,0.0,0.0,0
0.0,-20.0,-28.0,-24.0,-18.0,-9.0,-11.0,-5.0,0.0,0.0,0.0,0.0,0.0,0.0,0.0,0.0,0
5.0,-6.0,-36.0,-18.0,-10.0,-9.0,-18.0,8.0,0.0,0.0,0.0,0.0,0.0,0.0,0.0,0.0,0
40.0,5.0,-46.0,-5.0,-4.0,-6.0,-30.0,5.0,0.0,0.0,0.0,0.0,0.0,0.0,0.0,0.0,0
45.0,3.0,-29.0,4.0,7.0,-3.0,-16.0,4.0,0.0,0.0,0.0,0.0,0.0,0.0,0.0,0.0,0
21.0,1.0,-7.0,8.0,12.0,10.0,-7.0,4.0,0.0,0.0,0.0,0.0,0.0,0.0,0.0,0.0,0
8.0,-13.0,-6.0,6.0,2.0,5.0,-14.0,6.0,0.0,0.0,0.0,0.0,0.0,0.0,0.0,0.0,0
-8.0,-23.0,-7.0,-2.0,-3.0,-3.0,-20.0,8.0,0.0,0.0,0.0,0.0,0.0,0.0,0.0,0.0,0
-16.0,-8.0,-4.0,-1.0,2.0,-1.0,-13.0,4.0,0.0,0.0,0.0,0.0,0.0,0.0,0.0,0.0,0
-7.0,-5.0,-6.0,-5.0,-7.0,-4.0,-8.0,0.0,0.0,0.0,0.0,0.0,0.0,0.0,0.0,0.0,0
-14.0,-17.0,-13.0,-10.0,-15.0,-3.0,5.0,-9.0,0.0,0.0,0.0,0.0,0.0,0.0,0.0,0.0,0
-39.0,-24.0,-10.0,-14.0,-11.0,-4.0,13.0,-5.0,0.0,0.0,0.0,0.0,0.0,0.0,0.0,0.0,0
-41.0,-33.0,9.0,-4.0,1.0,-3.0,14.0,-6.0,0.0,0.0,0.0,0.0,0.0,0.0,0.0,0.0,0
-25.0,3.0,28.0,17.0,3.0,6.0,30.0,-12.0,0.0,0.0,0.0,0.0,0.0,0.0,0.0,0.0,0
-6.0,30.0,40.0,16.0,7.0,5.0,25.0,-15.0,0.0,0.0,0.0,0.0,0.0,0.0,0.0,0.0,0
7.0,32.0,22.0,6.0,10.0,-3.0,12.0,-8.0,0.0,0.0,0.0,0.0,0.0,0.0,0.0,0.0,0
6.0,31.0,12.0,-2.0,4.0,-4.0,7.0,-3.0,0.0,0.0,0.0,0.0,0.0,0.0,0.0,0.0,0
13.0,42.0,9.0,-4.0,0.0,3.0,6.0,-9.0,0.0,0.0,0.0,0.0,0.0,0.0,0.0,0.0,0
12.0,56.0,5.0,-10.0,1.0,-4.0,3.0,-7.0,0.0,0.0,0.0,0.0,0.0,0.0,0.0,0.0,0
8.0,19.0,0.0,-18.0,-5.0,-12.0,-9.0,-10.0,0.0,0.0,0.0,0.0,0.0,0.0,0.0,0.0,0
-10.0,-35.0,-8.0,-8.0,-2.0,-8.0,-12.0,-1.0,0.0,0.0,0.0,0.0,0.0,0.0,0.0,0.0,0
-18.0,-56.0,-15.0,-4.0,-8.0,-6.0,-13.0,2.0,0.0,0.0,0.0,0.0,0.0,0.0,0.0,0.0,0
-16.0,-57.0,-19.0,-10.0,-14.0,-6.0,-18.0,8.0,0.0,0.0,0.0,0.0,0.0,0.0,0.0,0.0,0
3.0,-45.0,-32.0,-9.0,-7.0,-1.0,-30.0,9.0,0.0,0.0,0.0,0.0,0.0,0.0,0.0,0.0,0
11.0,-29.0,-35.0,-6.0,-9.0,4.0,-18.0,1.0,0.0,0.0,0.0,0.0,0.0,0.0,0.0,0.0,0
11.0,-8.0,-24.0,-9.0,-3.0,2.0,-6.0,1.0,0.0,0.0,0.0,0.0,0.0,0.0,0.0,0.0,0
23.0,6.0,-20.0,-11.0,-7.0,-5.0,-14.0,7.0,0.0,0.0,0.0,0.0,0.0,0.0,0.0,0.0,0
21.0,13.0,-24.0,-1.0,-6.0,-5.0,-17.0,7.0,0.0,0.0,0.0,0.0,0.0,0.0,0.0,0.0,0
5.0,11.0,-4.0,10.0,-5.0,2.0,-10.0,4.0,0.0,0.0,0.0,0.0,0.0,0.0,0.0,0.0,0
9.0,14.0,14.0,8.0,5.0,5.0,-6.0,-5.0,0.0,0.0,0.0,0.0,0.0,0.0,0.0,0.0,0
9.0,25.0,23.0,10.0,6.0,-1.0,11.0,-3.0,0.0,0.0,0.0,0.0,0.0,0.0,0.0,0.0,0
5.0,19.0,31.0,6.0,0.0,-1.0,25.0,-3.0,0.0,0.0,0.0,0.0,0.0,0.0,0.0,0.0,0
-12.0,9.0,26.0,-1.0,-7.0,1.0,15.0,-6.0,0.0,0.0,0.0,0.0,0.0,0.0,0.0,0.0,0
-36.0,-2.0,21.0,-6.0,-5.0,7.0,18.0,-11.0,0.0,0.0,0.0,0.0,0.0,0.0,0.0,0.0,0
-45.0,-13.0,13.0,-6.0,-2.0,0.0,18.0,-22.0,0.0,0.0,0.0,0.0,0.0,0.0,0.0,0.0,0
-43.0,-14.0,-1.0,-15.0,-3.0,-6.0,12.0,-11.0,0.0,0.0,0.0,0.0,0.0,0.0,0.0,0.0,0
-36.0,-13.0,-7.0,-13.0,-2.0,-5.0,4.0,-3.0,0.0,0.0,0.0,0.0,0.0,0.0,0.0,0.0,0
-17.0,-8.0,-18.0,-14.0,1.0,-4.0,0.0,-8.0,0.0,0.0,0.0,0.0,0.0,0.0,0.0,0.0,0
5.0,4.0,-10.0,-2.0,-1.0,-5.0,2.0,-6.0,0.0,0.0,0.0,0.0,0.0,0.0,0.0,0.0,0
10.0,8.0,-5.0,4.0,-2.0,-5.0,-5.0,-3.0,0.0,0.0,0.0,0.0,0.0,0.0,0.0,0.0,0
9.0,8.0,-5.0,5.0,2.0,-2.0,-7.0,-3.0,0.0,0.0,0.0,0.0,0.0,0.0,0.0,0.0,0
15.0,9.0,-2.0,1.0,-2.0,1.0,-7.0,4.0,0.0,0.0,0.0,0.0,0.0,0.0,0.0,0.0,0
21.0,6.0,-4.0,1.0,-5.0,3.0,-14.0,10.0,0.0,0.0,0.0,0.0,0.0,0.0,0.0,0.0,0
30.0,-12.0,-13.0,0.0,-9.0,-4.0,-23.0,7.0,0.0,0.0,0.0,0.0,0.0,0.0,0.0,0.0,0
25.0,-13.0,-5.0,0.0,-4.0,-1.0,-22.0,-3.0,0.0,0.0,0.0,0.0,0.0,0.0,0.0,0.0,0
18.0,-14.0,2.0,5.0,-6.0,-12.0,-19.0,-1.0,0.0,0.0,0.0,0.0,0.0,0.0,0.0,0.0,0
12.0,-12.0,-8.0,8.0,-6.0,-5.0,-19.0,10.0,0.0,0.0,0.0,0.0,0.0,0.0,0.0,0.0,0
-4.0,-7.0,-16.0,7.0,-4.0,1.0,-15.0,8.0,0.0,0.0,0.0,0.0,0.0,0.0,0.0,0.0,0
-13.0,-6.0,-19.0,0.0,-2.0,-4.0,-11.0,6.0,0.0,0.0,0.0,0.0,0.0,0.0,0.0,0.0,0
-12.0,-17.0,-14.0,-10.0,-3.0,-7.0,-6.0,-1.0,0.0,0.0,0.0,0.0,0.0,0.0,0.0,0.0,0
-17.0,-17.0,-6.0,-12.0,-9.0,-2.0,6.0,-8.0,0.0,0.0,0.0,0.0,0.0,0.0,0.0,0.0,0
-22.0,-4.0,1.0,-20.0,-10.0,4.0,15.0,-14.0,0.0,0.0,0.0,0.0,0.0,0.0,0.0,0.0,0
-15.0,10.0,13.0,-14.0,2.0,6.0,24.0,-12.0,0.0,0.0,0.0,0.0,0.0,0.0,0.0,0.0,0
-21.0,15.0,12.0,-10.0,8.0,2.0,29.0,-9.0,0.0,0.0,0.0,0.0,0.0,0.0,0.0,0.0,0
-22.0,10.0,4.0,-10.0,2.0,0.0,22.0,-18.0,0.0,0.0,0.0,0.0,0.0,0.0,0.0,0.0,0
-17.0,1.0,0.0,4.0,-1.0,-9.0,7.0,-16.0,0.0,0.0,0.0,0.0,0.0,0.0,0.0,0.0,0
-15.0,4.0,6.0,11.0,-4.0,-10.0,2.0,-9.0,0.0,0.0,0.0,0.0,0.0,0.0,0.0,0.0,0
-4.0,3.0,12.0,8.0,-1.0,-6.0,12.0,-4.0,0.0,0.0,0.0,0.0,0.0,0.0,0.0,0.0,0
1.0,5.0,13.0,9.0,-1.0,-3.0,7.0,1.0,0.0,0.0,0.0,0.0,0.0,0.0,0.0,0.0,0
14.0,3.0,-1.0,-4.0,1.0,-4.0,-7.0,1.0,0.0,0.0,0.0,0.0,0.0,0.0,0.0,0.0,0
11.0,-2.0,-9.0,-11.0,1.0,-3.0,-11.0,-6.0,0.0,0.0,0.0,0.0,0.0,0.0,0.0,0.0,0
7.0,2.0,0.0,-6.0,-9.0,-3.0,-18.0,-5.0,0.0,0.0,0.0,0.0,0.0,0.0,0.0,0.0,0
12.0,-4.0,-2.0,2.0,-13.0,-2.0,-16.0,3.0,0.0,0.0,0.0,0.0,0.0,0.0,0.0,0.0,0
19.0,-9.0,-26.0,1.0,-7.0,-5.0,-22.0,10.0,0.0,0.0,0.0,0.0,0.0,0.0,0.0,0.0,0
7.0,-21.0,-33.0,-6.0,-6.0,-2.0,-21.0,8.0,0.0,0.0,0.0,0.0,0.0,0.0,0.0,0.0,0
-3.0,-23.0,-16.0,-7.0,2.0,3.0,-19.0,1.0,0.0,0.0,0.0,0.0,0.0,0.0,0.0,0.0,0
5.0,-18.0,-15.0,2.0,-1.0,0.0,-21.0,1.0,0.0,0.0,0.0,0.0,0.0,0.0,0.0,0.0,0
5.0,-12.0,-11.0,7.0,5.0,-2.0,-15.0,3.0,0.0,0.0,0.0,0.0,0.0,0.0,0.0,0.0,0
1.0,-1.0,-7.0,5.0,5.0,1.0,-2.0,1.0,0.0,0.0,0.0,0.0,0.0,0.0,0.0,0.0,0
1.0,-7.0,-11.0,-7.0,3.0,0.0,-2.0,-1.0,0.0,0.0,0.0,0.0,0.0,0.0,0.0,0.0,0
-11.0,-5.0,10.0,-2.0,1.0,1.0,7.0,-8.0,0.0,0.0,0.0,0.0,0.0,0.0,0.0,0.0,0
-20.0,4.0,28.0,3.0,-4.0,3.0,16.0,-8.0,0.0,0.0,0.0,0.0,0.0,0.0,0.0,0.0,0
-17.0,18.0,27.0,-3.0,-11.0,-3.0,15.0,-8.0,0.0,0.0,0.0,0.0,0.0,0.0,0.0,0.0,0
-22.0,18.0,29.0,-7.0,-9.0,-4.0,28.0,-12.0,0.0,0.0,0.0,0.0,0.0,0.0,0.0,0.0,0
-19.0,12.0,17.0,-11.0,-9.0,-4.0,24.0,-13.0,0.0,0.0,0.0,0.0,0.0,0.0,0.0,0.0,0
-9.0,6.0,-1.0,-13.0,-15.0,-15.0,7.0,-12.0,0.0,0.0,0.0,0.0,0.0,0.0,0.0,0.0,0
-7.0,5.0,-11.0,-7.0,-4.0,-7.0,4.0,-12.0,0.0,0.0,0.0,0.0,0.0,0.0,0.0,0.0,0
2.0,2.0,-6.0,-1.0,7.0,-3.0,4.0,-8.0,0.0,0.0,0.0,0.0,0.0,0.0,0.0,0.0,0
-8.0,7.0,3.0,8.0,6.0,-8.0,-1.0,0.0,0.0,0.0,0.0,0.0,0.0,0.0,0.0,0.0,0
-6.0,-3.0,-5.0,0.0,10.0,-5.0,-5.0,-2.0,0.0,0.0,0.0,0.0,0.0,0.0,0.0,0.0,0
0.0,-19.0,-11.0,1.0,7.0,4.0,-4.0,3.0,0.0,0.0,0.0,0.0,0.0,0.0,0.0,0.0,0
-3.0,-16.0,-12.0,1.0,-1.0,6.0,-13.0,6.0,0.0,0.0,0.0,0.0,0.0,0.0,0.0,0.0,0
-1.0,-15.0,-19.0,-9.0,-8.0,4.0,-17.0,-4.0,0.0,0.0,0.0,0.0,0.0,0.0,0.0,0.0,0
13.0,-17.0,-24.0,-13.0,-7.0,-8.0,-29.0,5.0,0.0,0.0,0.0,0.0,0.0,0.0,0.0,0.0,0
16.0,-22.0,-16.0,-14.0,-1.0,-5.0,-20.0,6.0,0.0,0.0,0.0,0.0,0.0,0.0,0.0,0.0,0
13.0,-15.0,-12.0,-10.0,-3.0,-1.0,-11.0,0.0,0.0,0.0,0.0,0.0,0.0,0.0,0.0,0.0,0
22.0,-11.0,-22.0,-10.0,-10.0,-7.0,-20.0,5.0,0.0,0.0,0.0,0.0,0.0,0.0,0.0,0.0,0
19.0,-11.0,-19.0,-11.0,-20.0,-7.0,-19.0,5.0,0.0,0.0,0.0,0.0,0.0,0.0,0.0,0.0,0
4.0,8.0,1.0,2.0,-13.0,3.0,-8.0,3.0,0.0,0.0,0.0,0.0,0.0,0.0,0.0,0.0,0
-7.0,19.0,-3.0,-2.0,1.0,3.0,-9.0,1.0,0.0,0.0,0.0,0.0,0.0,0.0,0.0,0.0,0
-8.0,25.0,-4.0,-1.0,3.0,4.0,3.0,-4.0,0.0,0.0,0.0,0.0,0.0,0.0,0.0,0.0,0
-22.0,13.0,10.0,7.0,1.0,-3.0,14.0,-11.0,0.0,0.0,0.0,0.0,0.0,0.0,0.0,0.0,0
-31.0,-6.0,27.0,20.0,5.0,2.0,24.0,-8.0,0.0,0.0,0.0,0.0,0.0,0.0,0.0,0.0,0
-30.0,-8.0,38.0,13.0,11.0,-3.0,28.0,-9.0,0.0,0.0,0.0,0.0,0.0,0.0,0.0,0.0,0
-25.0,-7.0,22.0,1.0,9.0,0.0,20.0,-14.0,0.0,0.0,0.0,0.0,0.0,0.0,0.0,0.0,0
-10.0,6.0,15.0,4.0,10.0,-3.0,6.0,-15.0,0.0,0.0,0.0,0.0,0.0,0.0,0.0,0.0,0
-4.0,19.0,20.0,9.0,2.0,1.0,5.0,-13.0,0.0,0.0,0.0,0.0,0.0,0.0,0.0,0.0,0
4.0,18.0,12.0,4.0,-2.0,-2.0,5.0,-9.0,0.0,0.0,0.0,0.0,0.0,0.0,0.0,0.0,0
3.0,9.0,-6.0,-14.0,-5.0,-2.0,1.0,2.0,0.0,0.0,0.0,0.0,0.0,0.0,0.0,0.0,0
-2.0,-15.0,-27.0,-22.0,-20.0,-5.0,-4.0,0.0,0.0,0.0,0.0,0.0,0.0,0.0,0.0,0.0,0
-25.0,-41.0,-28.0,-20.0,-19.0,-9.0,-9.0,0.0,0.0,0.0,0.0,0.0,0.0,0.0,0.0,0.0,0
-45.0,-56.0,-30.0,-15.0,-15.0,-12.0,-12.0,6.0,0.0,0.0,0.0,0.0,0.0,0.0,0.0,0.0,0
-31.0,-31.0,-20.0,-16.0,-5.0,-11.0,-15.0,4.0,0.0,0.0,0.0,0.0,0.0,0.0,0.0,0.0,0
28.0,16.0,-13.0,-9.0,-1.0,-3.0,-30.0,10.0,0.0,0.0,0.0,0.0,0.0,0.0,0.0,0.0,0
61.0,37.0,3.0,5.0,2.0,5.0,-20.0,2.0,0.0,0.0,0.0,0.0,0.0,0.0,0.0,0.0,0
61.0,32.0,1.0,12.0,-3.0,8.0,-13.0,1.0,0.0,0.0,0.0,0.0,0.0,0.0,0.0,0.0,0
64.0,25.0,-11.0,3.0,-7.0,-6.0,-15.0,7.0,0.0,0.0,0.0,0.0,0.0,0.0,0.0,0.0,0
39.0,-4.0,-21.0,1.0,-4.0,0.0,-14.0,9.0,0.0,0.0,0.0,0.0,0.0,0.0,0.0,0.0,0
1.0,-26.0,-15.0,1.0,-6.0,-1.0,-12.0,-1.0,0.0,0.0,0.0,0.0,0.0,0.0,0.0,0.0,0
-39.0,-37.0,-8.0,0.0,-10.0,-4.0,-7.0,-6.0,0.0,0.0,0.0,0.0,0.0,0.0,0.0,0.0,0
-59.0,-42.0,4.0,0.0,-1.0,-1.0,10.0,-5.0,0.0,0.0,0.0,0.0,0.0,0.0,0.0,0.0,0
-61.0,-25.0,11.0,2.0,6.0,0.0,10.0,-7.0,0.0,0.0,0.0,0.0,0.0,0.0,0.0,0.0,0
-43.0,-2.0,20.0,7.0,10.0,4.0,13.0,-5.0,0.0,0.0,0.0,0.0,0.0,0.0,0.0,0.0,0
-28.0,7.0,18.0,-3.0,4.0,6.0,21.0,-6.0,0.0,0.0,0.0,0.0,0.0,0.0,0.0,0.0,0
-19.0,17.0,9.0,-12.0,-3.0,-4.0,24.0,-11.0,0.0,0.0,0.0,0.0,0.0,0.0,0.0,0.0,0
-3.0,25.0,16.0,-7.0,-2.0,-7.0,11.0,-11.0,0.0,0.0,0.0,0.0,0.0,0.0,0.0,0.0,0
8.0,30.0,18.0,-3.0,-1.0,-5.0,13.0,-8.0,0.0,0.0,0.0,0.0,0.0,0.0,0.0,0.0,0
8.0,21.0,13.0,-3.0,-2.0,-11.0,5.0,-15.0,0.0,0.0,0.0,0.0,0.0,0.0,0.0,0.0,0
12.0,13.0,2.0,-9.0,-8.0,-2.0,-2.0,-8.0,0.0,0.0,0.0,0.0,0.0,0.0,0.0,0.0,0
13.0,-2.0,-11.0,-5.0,-6.0,-3.0,-14.0,0.0,0.0,0.0,0.0,0.0,0.0,0.0,0.0,0.0,0
2.0,-9.0,-14.0,-9.0,-9.0,-9.0,-9.0,1.0,0.0,0.0,0.0,0.0,0.0,0.0,0.0,0.0,0
4.0,-16.0,-15.0,-13.0,-1.0,-5.0,-2.0,2.0,0.0,0.0,0.0,0.0,0.0,0.0,0.0,0.0,0
7.0,-18.0,-25.0,-7.0,-2.0,4.0,-11.0,0.0,0.0,0.0,0.0,0.0,0.0,0.0,0.0,0.0,0
11.0,-23.0,-37.0,2.0,-7.0,-8.0,-34.0,4.0,0.0,0.0,0.0,0.0,0.0,0.0,0.0,0.0,0
8.0,-21.0,-23.0,-3.0,-13.0,-12.0,-29.0,4.0,0.0,0.0,0.0,0.0,0.0,0.0,0.0,0.0,0
3.0,-11.0,-3.0,5.0,-5.0,-5.0,-16.0,3.0,0.0,0.0,0.0,0.0,0.0,0.0,0.0,0.0,0
21.0,11.0,-6.0,11.0,-3.0,1.0,-13.0,12.0,0.0,0.0,0.0,0.0,0.0,0.0,0.0,0.0,0
29.0,11.0,-6.0,8.0,-1.0,5.0,-12.0,11.0,0.0,0.0,0.0,0.0,0.0,0.0,0.0,0.0,0
16.0,-11.0,1.0,-1.0,0.0,1.0,-10.0,-1.0,0.0,0.0,0.0,0.0,0.0,0.0,0.0,0.0,0
-6.0,-15.0,-1.0,-10.0,1.0,-1.0,-7.0,-9.0,0.0,0.0,0.0,0.0,0.0,0.0,0.0,0.0,0
-31.0,-15.0,8.0,-6.0,2.0,2.0,14.0,-1.0,0.0,0.0,0.0,0.0,0.0,0.0,0.0,0.0,0
-36.0,1.0,12.0,4.0,6.0,-1.0,24.0,-5.0,0.0,0.0,0.0,0.0,0.0,0.0,0.0,0.0,0
-30.0,8.0,4.0,-4.0,4.0,-2.0,19.0,-7.0,0.0,0.0,0.0,0.0,0.0,0.0,0.0,0.0,0
-31.0,6.0,13.0,-7.0,2.0,-3.0,19.0,-7.0,0.0,0.0,0.0,0.0,0.0,0.0,0.0,0.0,0
-22.0,11.0,10.0,0.0,-1.0,-1.0,12.0,-11.0,0.0,0.0,0.0,0.0,0.0,0.0,0.0,0.0,0
-5.0,5.0,-2.0,2.0,1.0,-2.0,8.0,-12.0,0.0,0.0,0.0,0.0,0.0,0.0,0.0,0.0,0
2.0,11.0,4.0,0.0,2.0,-4.0,16.0,-13.0,0.0,0.0,0.0,0.0,0.0,0.0,0.0,0.0,0
7.0,14.0,12.0,0.0,3.0,-8.0,5.0,-15.0,0.0,0.0,0.0,0.0,0.0,0.0,0.0,0.0,0
-3.0,-1.0,13.0,-5.0,-3.0,-9.0,-5.0,-6.0,0.0,0.0,0.0,0.0,0.0,0.0,0.0,0.0,0
-4.0,-7.0,7.0,-1.0,-8.0,-4.0,-7.0,2.0,0.0,0.0,0.0,0.0,0.0,0.0,0.0,0.0,0
3.0,-3.0,4.0,5.0,-10.0,-12.0,-4.0,0.0,0.0,0.0,0.0,0.0,0.0,0.0,0.0,0.0,0
11.0,0.0,4.0,-4.0,-11.0,-3.0,-11.0,4.0,0.0,0.0,0.0,0.0,0.0,0.0,0.0,0.0,0
12.0,-7.0,-4.0,-4.0,-7.0,2.0,-13.0,6.0,0.0,0.0,0.0,0.0,0.0,0.0,0.0,0.0,0
9.0,-15.0,-19.0,-2.0,-5.0,0.0,-30.0,9.0,0.0,0.0,0.0,0.0,0.0,0.0,0.0,0.0,0
8.0,-21.0,-31.0,-13.0,-9.0,-6.0,-29.0,6.0,0.0,0.0,0.0,0.0,0.0,0.0,0.0,0.0,0
7.0,-10.0,-32.0,-28.0,-9.0,-4.0,-18.0,0.0,0.0,0.0,0.0,0.0,0.0,0.0,0.0,0.0,0
17.0,-7.0,-41.0,-29.0,-7.0,-1.0,-20.0,0.0,0.0,0.0,0.0,0.0,0.0,0.0,0.0,0.0,0
13.0,-8.0,-37.0,-4.0,-3.0,-1.0,-13.0,4.0,0.0,0.0,0.0,0.0,0.0,0.0,0.0,0.0,0
3.0,-6.0,-30.0,9.0,6.0,3.0,-5.0,0.0,0.0,0.0,0.0,0.0,0.0,0.0,0.0,0.0,0
-18.0,-19.0,-26.0,1.0,1.0,4.0,3.0,4.0,0.0,0.0,0.0,0.0,0.0,0.0,0.0,0.0,0
-11.0,-9.0,5.0,6.0,10.0,3.0,6.0,-1.0,0.0,0.0,0.0,0.0,0.0,0.0,0.0,0.0,0
10.0,19.0,46.0,24.0,11.0,4.0,11.0,-13.0,0.0,0.0,0.0,0.0,0.0,0.0,0.0,0.0,0
4.0,17.0,60.0,21.0,2.0,-1.0,20.0,-11.0,0.0,0.0,0.0,0.0,0.0,0.0,0.0,0.0,0
-34.0,2.0,54.0,13.0,0.0,-8.0,24.0,-9.0,0.0,0.0,0.0,0.0,0.0,0.0,0.0,0.0,0
-42.0,-2.0,23.0,-4.0,-5.0,-7.0,18.0,-6.0,0.0,0.0,0.0,0.0,0.0,0.0,0.0,0.0,0
-25.0,4.0,8.0,-11.0,-8.0,-6.0,9.0,-9.0,0.0,0.0,0.0,0.0,0.0,0.0,0.0,0.0,0
-19.0,11.0,-7.0,-10.0,1.0,-4.0,6.0,-17.0,0.0,0.0,0.0,0.0,0.0,0.0,0.0,0.0,0
-14.0,11.0,-12.0,-23.0,-7.0,-3.0,7.0,-7.0,0.0,0.0,0.0,0.0,0.0,0.0,0.0,0.0,0
-1.0,4.0,-9.0,-5.0,-10.0,-3.0,1.0,-4.0,0.0,0.0,0.0,0.0,0.0,0.0,0.0,0.0,0
17.0,-1.0,-6.0,7.0,-4.0,-9.0,-11.0,0.0,0.0,0.0,0.0,0.0,0.0,0.0,0.0,0.0,0
19.0,1.0,-1.0,12.0,-1.0,-4.0,-4.0,-2.0,0.0,0.0,0.0,0.0,0.0,0.0,0.0,0.0,0
11.0,-1.0,0.0,3.0,2.0,1.0,-14.0,1.0,0.0,0.0,0.0,0.0,0.0,0.0,0.0,0.0,0
3.0,-18.0,-20.0,-20.0,-9.0,-4.0,-21.0,2.0,0.0,0.0,0.0,0.0,0.0,0.0,0.0,0.0,0
8.0,-25.0,-34.0,-20.0,-10.0,-7.0,-26.0,7.0,0.0,0.0,0.0,0.0,0.0,0.0,0.0,0.0,0
10.0,-23.0,-28.0,-16.0,-3.0,-2.0,-22.0,3.0,0.0,0.0,0.0,0.0,0.0,0.0,0.0,0.0,0
7.0,-7.0,-25.0,-4.0,-1.0,3.0,-14.0,0.0,0.0,0.0,0.0,0.0,0.0,0.0,0.0,0.0,0
20.0,-4.0,-28.0,1.0,-1.0,2.0,-14.0,8.0,0.0,0.0,0.0,0.0,0.0,0.0,0.0,0.0,0
17.0,1.0,-14.0,6.0,0.0,0.0,-10.0,5.0,0.0,0.0,0.0,0.0,0.0,0.0,0.0,0.0,0
3.0,-7.0,1.0,3.0,-5.0,1.0,-9.0,0.0,0.0,0.0,0.0,0.0,0.0,0.0,0.0,0.0,0
9.0,-2.0,9.0,8.0,0.0,-6.0,-8.0,2.0,0.0,0.0,0.0,0.0,0.0,0.0,0.0,0.0,0
-6.0,3.0,19.0,15.0,4.0,-5.0,4.0,-3.0,0.0,0.0,0.0,0.0,0.0,0.0,0.0,0.0,0
-29.0,1.0,15.0,11.0,-2.0,0.0,12.0,-14.0,0.0,0.0,0.0,0.0,0.0,0.0,0.0,0.0,0
-31.0,2.0,11.0,2.0,-1.0,-5.0,14.0,-12.0,0.0,0.0,0.0,0.0,0.0,0.0,0.0,0.0,0
-40.0,6.0,25.0,-4.0,2.0,2.0,31.0,-14.0,0.0,0.0,0.0,0.0,0.0,0.0,0.0,0.0,0
-33.0,3.0,15.0,-8.0,2.0,-3.0,25.0,-11.0,0.0,0.0,0.0,0.0,0.0,0.0,0.0,0.0,0
-11.0,0.0,5.0,-14.0,-10.0,-6.0,9.0,-11.0,0.0,0.0,0.0,0.0,0.0,0.0,0.0,0.0,0
-5.0,5.0,10.0,-15.0,-14.0,0.0,8.0,-4.0,0.0,0.0,0.0,0.0,0.0,0.0,0.0,0.0,0
-4.0,6.0,10.0,-4.0,-6.0,-1.0,8.0,-1.0,0.0,0.0,0.0,0.0,0.0,0.0,0.0,0.0,0
-2.0,5.0,2.0,3.0,-1.0,-6.0,2.0,-10.0,0.0,0.0,0.0,0.0,0.0,0.0,0.0,0.0,0
6.0,2.0,-8.0,-13.0,-3.0,-5.0,-12.0,-4.0,0.0,0.0,0.0,0.0,0.0,0.0,0.0,0.0,0
12.0,-2.0,-22.0,-16.0,-7.0,-7.0,-13.0,-2.0,0.0,0.0,0.0,0.0,0.0,0.0,0.0,0.0,0
14.0,-5.0,-29.0,-11.0,-1.0,-5.0,-12.0,-6.0,0.0,0.0,0.0,0.0,0.0,0.0,0.0,0.0,0
13.0,-12.0,-30.0,-5.0,0.0,-6.0,-18.0,0.0,0.0,0.0,0.0,0.0,0.0,0.0,0.0,0.0,0
18.0,-18.0,-23.0,-6.0,-3.0,-6.0,-27.0,7.0,0.0,0.0,0.0,0.0,0.0,0.0,0.0,0.0,0
14.0,-16.0,-13.0,7.0,-3.0,5.0,-17.0,13.0,0.0,0.0,0.0,0.0,0.0,0.0,0.0,0.0,0
5.0,-9.0,1.0,11.0,0.0,4.0,-11.0,5.0,0.0,0.0,0.0,0.0,0.0,0.0,0.0,0.0,0
12.0,-4.0,-15.0,-2.0,-1.0,4.0,-19.0,1.0,0.0,0.0,0.0,0.0,0.0,0.0,0.0,0.0,0
10.0,-13.0,-18.0,-2.0,-3.0,5.0,-15.0,7.0,0.0,0.0,0.0,0.0,0.0,0.0,0.0,0.0,0
1.0,-14.0,-10.0,12.0,-5.0,-4.0,-11.0,5.0,0.0,0.0,0.0,0.0,0.0,0.0,0.0,0.0,0
-2.0,-13.0,5.0,10.0,-3.0,-6.0,-4.0,1.0,0.0,0.0,0.0,0.0,0.0,0.0,0.0,0.0,0
-12.0,5.0,21.0,9.0,6.0,-1.0,11.0,-3.0,0.0,0.0,0.0,0.0,0.0,0.0,0.0,0.0,0
-19.0,12.0,18.0,8.0,7.0,-1.0,20.0,-10.0,0.0,0.0,0.0,0.0,0.0,0.0,0.0,0.0,0
-30.0,0.0,13.0,-5.0,0.0,-5.0,20.0,-10.0,0.0,0.0,0.0,0.0,0.0,0.0,0.0,0.0,0
-51.0,-9.0,22.0,-5.0,1.0,-1.0,26.0,-10.0,0.0,0.0,0.0,0.0,0.0,0.0,0.0,0.0,0
-34.0,13.0,24.0,-3.0,0.0,1.0,18.0,-12.0,0.0,0.0,0.0,0.0,0.0,0.0,0.0,0.0,0
0.0,28.0,16.0,-16.0,-10.0,-8.0,8.0,-5.0,0.0,0.0,0.0,0.0,0.0,0.0,0.0,0.0,0
18.0,28.0,8.0,-20.0,-8.0,-2.0,8.0,-3.0,0.0,0.0,0.0,0.0,0.0,0.0,0.0,0.0,0
9.0,19.0,2.0,-16.0,-9.0,-3.0,-1.0,-8.0,0.0,0.0,0.0,0.0,0.0,0.0,0.0,0.0,0
5.0,-2.0,-9.0,-14.0,-9.0,-3.0,-6.0,-4.0,0.0,0.0,0.0,0.0,0.0,0.0,0.0,0.0,0
-6.0,-30.0,-32.0,-13.0,-9.0,-11.0,-10.0,-3.0,0.0,0.0,0.0,0.0,0.0,0.0,0.0,0.0,0
-14.0,-44.0,-47.0,-7.0,-4.0,-15.0,-16.0,-4.0,0.0,0.0,0.0,0.0,0.0,0.0,0.0,0.0,0
-4.0,-23.0,-30.0,19.0,2.0,-6.0,-13.0,-4.0,0.0,0.0,0.0,0.0,0.0,0.0,0.0,0.0,0
3.0,-1.0,-17.0,18.0,8.0,1.0,-11.0,3.0,0.0,0.0,0.0,0.0,0.0,0.0,0.0,0.0,0
19.0,-2.0,-12.0,10.0,7.0,2.0,-13.0,9.0,0.0,0.0,0.0,0.0,0.0,0.0,0.0,0.0,0
24.0,5.0,-3.0,14.0,8.0,3.0,-16.0,8.0,0.0,0.0,0.0,0.0,0.0,0.0,0.0,0.0,0
18.0,2.0,16.0,3.0,9.0,2.0,-7.0,8.0,0.0,0.0,0.0,0.0,0.0,0.0,0.0,0.0,0
25.0,-2.0,8.0,-5.0,0.0,2.0,-17.0,6.0,0.0,0.0,0.0,0.0,0.0,0.0,0.0,0.0,0
15.0,-9.0,-4.0,-11.0,-11.0,2.0,-22.0,7.0,0.0,0.0,0.0,0.0,0.0,0.0,0.0,0.0,0
6.0,-4.0,-3.0,-12.0,-11.0,-2.0,-15.0,1.0,0.0,0.0,0.0,0.0,0.0,0.0,0.0,0.0,0
5.0,3.0,-4.0,-9.0,-14.0,-3.0,-5.0,2.0,0.0,0.0,0.0,0.0,0.0,0.0,0.0,0.0,0
-21.0,0.0,1.0,-1.0,-13.0,-5.0,7.0,-7.0,0.0,0.0,0.0,0.0,0.0,0.0,0.0,0.0,0
-31.0,9.0,9.0,-1.0,-14.0,-1.0,7.0,-10.0,0.0,0.0,0.0,0.0,0.0,0.0,0.0,0.0,0
-32.0,2.0,5.0,-8.0,-10.0,-5.0,13.0,-10.0,0.0,0.0,0.0,0.0,0.0,0.0,0.0,0.0,0
-32.0,-13.0,8.0,-4.0,4.0,-7.0,28.0,-1.0,0.0,0.0,0.0,0.0,0.0,0.0,0.0,0.0,0
-29.0,-7.0,17.0,-2.0,9.0,-8.0,25.0,-15.0,0.0,0.0,0.0,0.0,0.0,0.0,0.0,0.0,0
-16.0,-12.0,7.0,5.0,7.0,-5.0,5.0,-7.0,0.0,0.0,0.0,0.0,0.0,0.0,0.0,0.0,0
-21.0,-25.0,4.0,5.0,5.0,0.0,5.0,-7.0,0.0,0.0,0.0,0.0,0.0,0.0,0.0,0.0,0
-17.0,-21.0,-1.0,-7.0,8.0,1.0,9.0,-7.0,0.0,0.0,0.0,0.0,0.0,0.0,0.0,0.0,0
-3.0,-7.0,-20.0,-23.0,-3.0,2.0,2.0,-8.0,0.0,0.0,0.0,0.0,0.0,0.0,0.0,0.0,0
17.0,10.0,-23.0,-23.0,-7.0,1.0,-9.0,-6.0,0.0,0.0,0.0,0.0,0.0,0.0,0.0,0.0,0
19.0,32.0,-13.0,-8.0,-9.0,-6.0,-11.0,-1.0,0.0,0.0,0.0,0.0,0.0,0.0,0.0,0.0,0
27.0,76.0,-4.0,-3.0,-5.0,-2.0,-10.0,-2.0,0.0,0.0,0.0,0.0,0.0,0.0,0.0,0.0,0
27.0,54.0,-1.0,-4.0,-14.0,-10.0,-17.0,-2.0,0.0,0.0,0.0,0.0,0.0,0.0,0.0,0.0,0
27.0,6.0,-6.0,2.0,-17.0,-8.0,-34.0,4.0,0.0,0.0,0.0,0.0,0.0,0.0,0.0,0.0,0
15.0,-25.0,1.0,10.0,4.0,-9.0,-24.0,9.0,0.0,0.0,0.0,0.0,0.0,0.0,0.0,0.0,0
-4.0,-54.0,0.0,5.0,-5.0,2.0,-14.0,8.0,0.0,0.0,0.0,0.0,0.0,0.0,0.0,0.0,0
-5.0,-67.0,-16.0,-4.0,-2.0,5.0,-21.0,5.0,0.0,0.0,0.0,0.0,0.0,0.0,0.0,0.0,0
-10.0,-55.0,-26.0,12.0,5.0,4.0,-21.0,0.0,0.0,0.0,0.0,0.0,0.0,0.0,0.0,0.0,0
-10.0,-29.0,-3.0,10.0,6.0,6.0,-5.0,3.0,0.0,0.0,0.0,0.0,0.0,0.0,0.0,0.0,0
0.0,2.0,-6.0,6.0,4.0,7.0,2.0,3.0,0.0,0.0,0.0,0.0,0.0,0.0,0.0,0.0,0
-7.0,14.0,-4.0,-2.0,3.0,6.0,5.0,-8.0,0.0,0.0,0.0,0.0,0.0,0.0,0.0,0.0,0
-18.0,13.0,6.0,-7.0,-9.0,1.0,20.0,-7.0,0.0,0.0,0.0,0.0,0.0,0.0,0.0,0.0,0
-9.0,22.0,17.0,-7.0,-8.0,-1.0,19.0,-5.0,0.0,0.0,0.0,0.0,0.0,0.0,0.0,0.0,0
-8.0,23.0,23.0,-8.0,1.0,-8.0,27.0,-8.0,0.0,0.0,0.0,0.0,0.0,0.0,0.0,0.0,0
-23.0,20.0,21.0,-7.0,-2.0,-3.0,26.0,-8.0,0.0,0.0,0.0,0.0,0.0,0.0,0.0,0.0,0
-13.0,8.0,15.0,-4.0,-10.0,-5.0,11.0,-6.0,0.0,0.0,0.0,0.0,0.0,0.0,0.0,0.0,0
-6.0,3.0,10.0,-2.0,-7.0,-6.0,1.0,-15.0,0.0,0.0,0.0,0.0,0.0,0.0,0.0,0.0,0
-19.0,0.0,5.0,-4.0,3.0,-3.0,-1.0,-11.0,0.0,0.0,0.0,0.0,0.0,0.0,0.0,0.0,0
-11.0,-10.0,-3.0,-7.0,1.0,-6.0,-6.0,-12.0,0.0,0.0,0.0,0.0,0.0,0.0,0.0,0.0,0
3.0,-13.0,-12.0,-8.0,-1.0,-7.0,-6.0,-3.0,0.0,0.0,0.0,0.0,0.0,0.0,0.0,0.0,0
4.0,-11.0,-10.0,-1.0,1.0,-8.0,-9.0,0.0,0.0,0.0,0.0,0.0,0.0,0.0,0.0,0.0,0
8.0,-6.0,-10.0,-3.0,-4.0,-2.0,-13.0,6.0,0.0,0.0,0.0,0.0,0.0,0.0,0.0,0.0,0
15.0,-5.0,-15.0,-3.0,-4.0,-4.0,-15.0,4.0,0.0,0.0,0.0,0.0,0.0,0.0,0.0,0.0,0
24.0,-12.0,-18.0,-1.0,-5.0,-4.0,-27.0,-2.0,0.0,0.0,0.0,0.0,0.0,0.0,0.0,0.0,0
14.0,-6.0,-15.0,4.0,-10.0,-2.0,-25.0,6.0,0.0,0.0,0.0,0.0,0.0,0.0,0.0,0.0,0
6.0,-7.0,-21.0,-14.0,-8.0,-1.0,-16.0,7.0,0.0,0.0,0.0,0.0,0.0,0.0,0.0,0.0,0
11.0,-16.0,-30.0,-17.0,-9.0,-9.0,-23.0,4.0,0.0,0.0,0.0,0.0,0.0,0.0,0.0,0.0,0
8.0,-17.0,-20.0,-12.0,-5.0,-5.0,-19.0,7.0,0.0,0.0,0.0,0.0,0.0,0.0,0.0,0.0,0
9.0,-3.0,-2.0,5.0,-1.0,5.0,-9.0,3.0,0.0,0.0,0.0,0.0,0.0,0.0,0.0,0.0,0
6.0,3.0,5.0,9.0,5.0,3.0,-3.0,5.0,0.0,0.0,0.0,0.0,0.0,0.0,0.0,0.0,0
-11.0,3.0,18.0,7.0,4.0,-3.0,14.0,-5.0,0.0,0.0,0.0,0.0,0.0,0.0,0.0,0.0,0
-21.0,2.0,22.0,4.0,1.0,5.0,23.0,-7.0,0.0,0.0,0.0,0.0,0.0,0.0,0.0,0.0,0
-24.0,5.0,24.0,4.0,1.0,-5.0,18.0,-6.0,0.0,0.0,0.0,0.0,0.0,0.0,0.0,0.0,0
-33.0,1.0,23.0,1.0,2.0,-6.0,18.0,-18.0,0.0,0.0,0.0,0.0,0.0,0.0,0.0,0.0,0
-22.0,3.0,16.0,-4.0,-4.0,-6.0,7.0,-21.0,0.0,0.0,0.0,0.0,0.0,0.0,0.0,0.0,0
-9.0,6.0,1.0,-3.0,1.0,0.0,5.0,-5.0,0.0,0.0,0.0,0.0,0.0,0.0,0.0,0.0,0
-12.0,18.0,1.0,3.0,-2.0,1.0,12.0,0.0,0.0,0.0,0.0,0.0,0.0,0.0,0.0,0.0,0
-14.0,1.0,-8.0,-1.0,-8.0,-8.0,8.0,-3.0,0.0,0.0,0.0,0.0,0.0,0.0,0.0,0.0,0
-14.0,-10.0,-16.0,-10.0,1.0,-2.0,3.0,-9.0,0.0,0.0,0.0,0.0,0.0,0.0,0.0,0.0,0
2.0,-6.0,-14.0,-6.0,6.0,1.0,-3.0,-5.0,0.0,0.0,0.0,0.0,0.0,0.0,0.0,0.0,0
10.0,-6.0,-7.0,-10.0,-5.0,-2.0,-14.0,6.0,0.0,0.0,0.0,0.0,0.0,0.0,0.0,0.0,0
7.0,-4.0,0.0,-7.0,-10.0,-5.0,-16.0,3.0,0.0,0.0,0.0,0.0,0.0,0.0,0.0,0.0,0
7.0,0.0,-2.0,-9.0,-12.0,-6.0,-19.0,0.0,0.0,0.0,0.0,0.0,0.0,0.0,0.0,0.0,0
20.0,-15.0,-14.0,-13.0,-15.0,-10.0,-25.0,3.0,0.0,0.0,0.0,0.0,0.0,0.0,0.0,0.0,0
22.0,-14.0,-10.0,-3.0,-10.0,-7.0,-21.0,-1.0,0.0,0.0,0.0,0.0,0.0,0.0,0.0,0.0,0
20.0,4.0,-13.0,-4.0,0.0,-7.0,-18.0,5.0,0.0,0.0,0.0,0.0,0.0,0.0,0.0,0.0,0
15.0,7.0,-20.0,3.0,5.0,2.0,-18.0,1.0,0.0,0.0,0.0,0.0,0.0,0.0,0.0,0.0,0
2.0,-1.0,-24.0,5.0,14.0,7.0,-12.0,4.0,0.0,0.0,0.0,0.0,0.0,0.0,0.0,0.0,0
2.0,-11.0,-18.0,16.0,7.0,0.0,-1.0,6.0,0.0,0.0,0.0,0.0,0.0,0.0,0.0,0.0,0
-2.0,-16.0,-11.0,16.0,-1.0,0.0,-5.0,8.0,0.0,0.0,0.0,0.0,0.0,0.0,0.0,0.0,0
-19.0,-14.0,8.0,-1.0,-6.0,2.0,-2.0,2.0,0.0,0.0,0.0,0.0,0.0,0.0,0.0,0.0,0
-26.0,-3.0,24.0,0.0,1.0,-2.0,13.0,-1.0,0.0,0.0,0.0,0.0,0.0,0.0,0.0,0.0,0
-22.0,-1.0,34.0,1.0,-3.0,4.0,16.0,-6.0,0.0,0.0,0.0,0.0,0.0,0.0,0.0,0.0,0
-25.0,8.0,34.0,-2.0,-5.0,1.0,20.0,-18.0,0.0,0.0,0.0,0.0,0.0,0.0,0.0,0.0,0
-23.0,11.0,23.0,-3.0,-14.0,-11.0,23.0,-19.0,0.0,0.0,0.0,0.0,0.0,0.0,0.0,0.0,0
-8.0,9.0,7.0,-6.0,-10.0,-6.0,11.0,-14.0,0.0,0.0,0.0,0.0,0.0,0.0,0.0,0.0,0
-15.0,4.0,-15.0,-13.0,-1.0,-10.0,5.0,-11.0,0.0,0.0,0.0,0.0,0.0,0.0,0.0,0.0,0
-15.0,-2.0,-29.0,-25.0,-10.0,-7.0,6.0,-7.0,0.0,0.0,0.0,0.0,0.0,0.0,0.0,0.0,0
-3.0,-3.0,-25.0,-25.0,-6.0,-5.0,1.0,-4.0,0.0,0.0,0.0,0.0,0.0,0.0,0.0,0.0,0
13.0,-4.0,-16.0,-11.0,-3.0,-4.0,-8.0,1.0,0.0,0.0,0.0,0.0,0.0,0.0,0.0,0.0,0
17.0,-7.0,-10.0,-4.0,5.0,0.0,-8.0,-1.0,0.0,0.0,0.0,0.0,0.0,0.0,0.0,0.0,0
12.0,-4.0,2.0,1.0,6.0,6.0,-6.0,6.0,0.0,0.0,0.0,0.0,0.0,0.0,0.0,0.0,0
9.0,0.0,11.0,6.0,6.0,-1.0,-14.0,9.0,0.0,0.0,0.0,0.0,0.0,0.0,0.0,0.0,0
19.0,-2.0,-2.0,8.0,-1.0,-5.0,-25.0,5.0,0.0,0.0,0.0,0.0,0.0,0.0,0.0,0.0,0
16.0,-6.0,-12.0,2.0,-9.0,-12.0,-25.0,1.0,0.0,0.0,0.0,0.0,0.0,0.0,0.0,0.0,0
7.0,-8.0,-9.0,4.0,-11.0,-3.0,-18.0,4.0,0.0,0.0,0.0,0.0,0.0,0.0,0.0,0.0,0
10.0,-15.0,-16.0,3.0,-8.0,3.0,-24.0,6.0,0.0,0.0,0.0,0.0,0.0,0.0,0.0,0.0,0
9.0,-8.0,-22.0,-5.0,-7.0,-7.0,-19.0,4.0,0.0,0.0,0.0,0.0,0.0,0.0,0.0,0.0,0
5.0,-14.0,-16.0,-1.0,-4.0,1.0,-3.0,-2.0,0.0,0.0,0.0,0.0,0.0,0.0,0.0,0.0,0
2.0,-9.0,-12.0,-2.0,2.0,4.0,-5.0,6.0,0.0,0.0,0.0,0.0,0.0,0.0,0.0,0.0,0
-12.0,-2.0,-3.0,8.0,13.0,10.0,5.0,3.0,0.0,0.0,0.0,0.0,0.0,0.0,0.0,0.0,0
-28.0,7.0,4.0,14.0,10.0,4.0,15.0,-6.0,0.0,0.0,0.0,0.0,0.0,0.0,0.0,0.0,0
-30.0,1.0,14.0,12.0,-2.0,-5.0,19.0,-7.0,0.0,0.0,0.0,0.0,0.0,0.0,0.0,0.0,0
-30.0,5.0,23.0,4.0,-12.0,1.0,20.0,-17.0,0.0,0.0,0.0,0.0,0.0,0.0,0.0,0.0,0
-24.0,4.0,26.0,-3.0,-3.0,-6.0,23.0,-17.0,0.0,0.0,0.0,0.0,0.0,0.0,0.0,0.0,0
-5.0,6.0,11.0,-15.0,-8.0,-9.0,11.0,-9.0,0.0,0.0,0.0,0.0,0.0,0.0,0.0,0.0,0
-5.0,9.0,16.0,-26.0,-15.0,-11.0,11.0,-8.0,0.0,0.0,0.0,0.0,0.0,0.0,0.0,0.0,0
-8.0,15.0,15.0,-22.0,-9.0,-10.0,4.0,-6.0,0.0,0.0,0.0,0.0,0.0,0.0,0.0,0.0,0
-7.0,8.0,5.0,-20.0,-4.0,-8.0,-6.0,-9.0,0.0,0.0,0.0,0.0,0.0,0.0,0.0,0.0,0
7.0,2.0,-7.0,-5.0,5.0,-4.0,-8.0,-4.0,0.0,0.0,0.0,0.0,0.0,0.0,0.0,0.0,0
17.0,-5.0,-19.0,-11.0,-1.0,3.0,-10.0,7.0,0.0,0.0,0.0,0.0,0.0,0.0,0.0,0.0,0
11.0,-9.0,-35.0,-15.0,-4.0,-1.0,-12.0,5.0,0.0,0.0,0.0,0.0,0.0,0.0,0.0,0.0,0
-1.0,-25.0,-43.0,-12.0,0.0,-4.0,-11.0,1.0,0.0,0.0,0.0,0.0,0.0,0.0,0.0,0.0,0
3.0,-27.0,-28.0,0.0,-2.0,-10.0,-28.0,7.0,0.0,0.0,0.0,0.0,0.0,0.0,0.0,0.0,0
9.0,-15.0,-6.0,22.0,0.0,-1.0,-24.0,2.0,0.0,0.0,0.0,0.0,0.0,0.0,0.0,0.0,0
13.0,-4.0,4.0,22.0,2.0,5.0,-17.0,5.0,0.0,0.0,0.0,0.0,0.0,0.0,0.0,0.0,0
29.0,3.0,-3.0,16.0,4.0,-4.0,-19.0,7.0,0.0,0.0,0.0,0.0,0.0,0.0,0.0,0.0,0
29.0,7.0,3.0,7.0,-1.0,-1.0,-14.0,4.0,0.0,0.0,0.0,0.0,0.0,0.0,0.0,0.0,0
4.0,5.0,-4.0,-2.0,-7.0,7.0,-7.0,0.0,0.0,0.0,0.0,0.0,0.0,0.0,0.0,0.0,0
-5.0,-6.0,-2.0,3.0,-3.0,1.0,-2.0,1.0,0.0,0.0,0.0,0.0,0.0,0.0,0.0,0.0,0
-20.0,-14.0,13.0,13.0,0.0,3.0,12.0,3.0,0.0,0.0,0.0,0.0,0.0,0.0,0.0,0.0,0
-37.0,-16.0,16.0,-2.0,-4.0,2.0,19.0,-5.0,0.0,0.0,0.0,0.0,0.0,0.0,0.0,0.0,0
-36.0,2.0,1.0,-23.0,-11.0,-4.0,17.0,-16.0,0.0,0.0,0.0,0.0,0.0,0.0,0.0,0.0,0
-32.0,18.0,14.0,-16.0,-2.0,-8.0,22.0,-14.0,0.0,0.0,0.0,0.0,0.0,0.0,0.0,0.0,0
-23.0,15.0,10.0,-13.0,7.0,-8.0,18.0,-5.0,0.0,0.0,0.0,0.0,0.0,0.0,0.0,0.0,0
-4.0,11.0,2.0,-8.0,5.0,-8.0,8.0,-7.0,0.0,0.0,0.0,0.0,0.0,0.0,0.0,0.0,0
-13.0,-1.0,9.0,-1.0,7.0,-1.0,8.0,-8.0,0.0,0.0,0.0,0.0,0.0,0.0,0.0,0.0,0
-8.0,-6.0,10.0,11.0,-2.0,0.0,4.0,-14.0,0.0,0.0,0.0,0.0,0.0,0.0,0.0,0.0,0
16.0,14.0,0.0,4.0,-3.0,-7.0,-6.0,-14.0,0.0,0.0,0.0,0.0,0.0,0.0,0.0,0.0,0
41.0,11.0,-5.0,-5.0,-10.0,-6.0,-6.0,0.0,0.0,0.0,0.0,0.0,0.0,0.0,0.0,0.0,0
24.0,-9.0,-7.0,-3.0,-9.0,-3.0,-10.0,3.0,0.0,0.0,0.0,0.0,0.0,0.0,0.0,0.0,0
-17.0,-29.0,-16.0,-2.0,-12.0,-5.0,-5.0,-3.0,0.0,0.0,0.0,0.0,0.0,0.0,0.0,0.0,0
-39.0,-31.0,-18.0,-6.0,-7.0,-7.0,-17.0,1.0,0.0,0.0,0.0,0.0,0.0,0.0,0.0,0.0,0
-1.0,-5.0,-15.0,-7.0,-2.0,-13.0,-28.0,5.0,0.0,0.0,0.0,0.0,0.0,0.0,0.0,0.0,0
30.0,6.0,-10.0,-7.0,-1.0,-1.0,-17.0,8.0,0.0,0.0,0.0,0.0,0.0,0.0,0.0,0.0,0
35.0,-4.0,-10.0,5.0,2.0,3.0,-11.0,11.0,0.0,0.0,0.0,0.0,0.0,0.0,0.0,0.0,0
37.0,-9.0,-14.0,1.0,-9.0,2.0,-21.0,6.0,0.0,0.0,0.0,0.0,0.0,0.0,0.0,0.0,0
23.0,-9.0,-16.0,-7.0,-9.0,-2.0,-12.0,3.0,0.0,0.0,0.0,0.0,0.0,0.0,0.0,0.0,0
-7.0,-10.0,-10.0,0.0,-6.0,-3.0,-3.0,4.0,0.0,0.0,0.0,0.0,0.0,0.0,0.0,0.0,0
-34.0,-17.0,-5.0,1.0,1.0,4.0,-6.0,-1.0,0.0,0.0,0.0,0.0,0.0,0.0,0.0,0.0,0
-42.0,-17.0,-2.0,1.0,3.0,6.0,-3.0,-13.0,0.0,0.0,0.0,0.0,0.0,0.0,0.0,0.0,0
-22.0,7.0,9.0,0.0,-2.0,-1.0,14.0,-7.0,0.0,0.0,0.0,0.0,0.0,0.0,0.0,0.0,0
-7.0,20.0,19.0,-1.0,-2.0,1.0,19.0,-7.0,0.0,0.0,0.0,0.0,0.0,0.0,0.0,0.0,0
-16.0,21.0,24.0,1.0,2.0,-4.0,27.0,-13.0,0.0,0.0,0.0,0.0,0.0,0.0,0.0,0.0,0
-21.0,16.0,20.0,-8.0,3.0,-6.0,23.0,-12.0,0.0,0.0,0.0,0.0,0.0,0.0,0.0,0.0,0
-7.0,-1.0,17.0,-9.0,-1.0,-7.0,8.0,-8.0,0.0,0.0,0.0,0.0,0.0,0.0,0.0,0.0,0
-2.0,-5.0,11.0,-3.0,-4.0,-2.0,9.0,-7.0,0.0,0.0,0.0,0.0,0.0,0.0,0.0,0.0,0
-10.0,5.0,7.0,9.0,-7.0,-7.0,5.0,-8.0,0.0,0.0,0.0,0.0,0.0,0.0,0.0,0.0,0
-12.0,-2.0,0.0,5.0,-1.0,-12.0,-5.0,-7.0,0.0,0.0,0.0,0.0,0.0,0.0,0.0,0.0,0
-5.0,-15.0,-17.0,-12.0,3.0,-3.0,-15.0,-9.0,0.0,0.0,0.0,0.0,0.0,0.0,0.0,0.0,0
12.0,-2.0,-23.0,-6.0,1.0,-5.0,-15.0,0.0,0.0,0.0,0.0,0.0,0.0,0.0,0.0,0.0,0
23.0,5.0,-15.0,3.0,2.0,4.0,-3.0,2.0,0.0,0.0,0.0,0.0,0.0,0.0,0.0,0.0,0
13.0,-13.0,-17.0,4.0,4.0,1.0,-15.0,8.0,0.0,0.0,0.0,0.0,0.0,0.0,0.0,0.0,0
8.0,-29.0,-26.0,-10.0,-6.0,-5.0,-27.0,10.0,0.0,0.0,0.0,0.0,0.0,0.0,0.0,0.0,0
4.0,-12.0,-23.0,-14.0,-16.0,-1.0,-24.0,9.0,0.0,0.0,0.0,0.0,0.0,0.0,0.0,0.0,0
8.0,8.0,-10.0,-6.0,-17.0,-3.0,-7.0,0.0,0.0,0.0,0.0,0.0,0.0,0.0,0.0,0.0,0
15.0,3.0,-3.0,-6.0,-12.0,-10.0,-14.0,3.0,0.0,0.0,0.0,0.0,0.0,0.0,0.0,0.0,0
16.0,-6.0,-1.0,-2.0,-9.0,-6.0,-19.0,6.0,0.0,0.0,0.0,0.0,0.0,0.0,0.0,0.0,0
0.0,-12.0,2.0,2.0,-2.0,4.0,-8.0,2.0,0.0,0.0,0.0,0.0,0.0,0.0,0.0,0.0,0
-1.0,7.0,7.0,3.0,1.0,1.0,-3.0,0.0,0.0,0.0,0.0,0.0,0.0,0.0,0.0,0.0,0
-8.0,22.0,15.0,8.0,4.0,6.0,9.0,-9.0,0.0,0.0,0.0,0.0,0.0,0.0,0.0,0.0,0
-12.0,12.0,12.0,2.0,5.0,0.0,13.0,-11.0,0.0,0.0,0.0,0.0,0.0,0.0,0.0,0.0,0
-22.0,-4.0,3.0,1.0,8.0,-4.0,20.0,-10.0,0.0,0.0,0.0,0.0,0.0,0.0,0.0,0.0,0
-40.0,-7.0,5.0,-5.0,4.0,-1.0,25.0,-12.0,0.0,0.0,0.0,0.0,0.0,0.0,0.0,0.0,0
-36.0,-16.0,1.0,-12.0,-1.0,4.0,28.0,-16.0,0.0,0.0,0.0,0.0,0.0,0.0,0.0,0.0,0
-26.0,-23.0,-20.0,-18.0,-8.0,0.0,14.0,-10.0,0.0,0.0,0.0,0.0,0.0,0.0,0.0,0.0,0
-17.0,-9.0,-18.0,-17.0,-7.0,-5.0,7.0,-4.0,0.0,0.0,0.0,0.0,0.0,0.0,0.0,0.0,0
1.0,8.0,-1.0,-7.0,-6.0,-8.0,0.0,-8.0,0.0,0.0,0.0,0.0,0.0,0.0,0.0,0.0,0
9.0,16.0,20.0,12.0,-3.0,-6.0,-2.0,-7.0,0.0,0.0,0.0,0.0,0.0,0.0,0.0,0.0,0
13.0,16.0,24.0,17.0,6.0,-4.0,-9.0,-7.0,0.0,0.0,0.0,0.0,0.0,0.0,0.0,0.0,0
8.0,13.0,15.0,10.0,7.0,0.0,-8.0,2.0,0.0,0.0,0.0,0.0,0.0,0.0,0.0,0.0,0
13.0,2.0,7.0,8.0,-1.0,-6.0,-8.0,3.0,0.0,0.0,0.0,0.0,0.0,0.0,0.0,0.0,0
12.0,-3.0,-7.0,2.0,-6.0,-8.0,-9.0,10.0,0.0,0.0,0.0,0.0,0.0,0.0,0.0,0.0,0
14.0,-13.0,-25.0,-2.0,-15.0,-9.0,-29.0,4.0,0.0,0.0,0.0,0.0,0.0,0.0,0.0,0.0,0
4.0,-23.0,-25.0,-9.0,-17.0,3.0,-26.0,0.0,0.0,0.0,0.0,0.0,0.0,0.0,0.0,0.0,0
-5.0,-24.0,-16.0,-12.0,-10.0,7.0,-12.0,3.0,0.0,0.0,0.0,0.0,0.0,0.0,0.0,0.0,0
8.0,-19.0,-25.0,-3.0,-5.0,2.0,-22.0,11.0,0.0,0.0,0.0,0.0,0.0,0.0,0.0,0.0,0
12.0,-9.0,-19.0,6.0,0.0,3.0,-12.0,7.0,0.0,0.0,0.0,0.0,0.0,0.0,0.0,0.0,0
6.0,-4.0,-1.0,-1.0,5.0,1.0,-2.0,3.0,0.0,0.0,0.0,0.0,0.0,0.0,0.0,0.0,0
10.0,-2.0,-1.0,-12.0,3.0,-5.0,-4.0,5.0,0.0,0.0,0.0,0.0,0.0,0.0,0.0,0.0,0
2.0,7.0,7.0,-15.0,-7.0,3.0,1.0,-3.0,0.0,0.0,0.0,0.0,0.0,0.0,0.0,0.0,0
-16.0,12.0,3.0,-14.0,-6.0,-1.0,17.0,-13.0,0.0,0.0,0.0,0.0,0.0,0.0,0.0,0.0,0
-23.0,12.0,-2.0,-22.0,0.0,-8.0,19.0,-14.0,0.0,0.0,0.0,0.0,0.0,0.0,0.0,0.0,0
-36.0,15.0,2.0,-12.0,-3.0,-8.0,27.0,-11.0,0.0,0.0,0.0,0.0,0.0,0.0,0.0,0.0,0
-31.0,-1.0,5.0,0.0,1.0,-4.0,24.0,-13.0,0.0,0.0,0.0,0.0,0.0,0.0,0.0,0.0,0
-15.0,-2.0,2.0,0.0,2.0,0.0,11.0,-7.0,0.0,0.0,0.0,0.0,0.0,0.0,0.0,0.0,0
-8.0,-2.0,11.0,7.0,-1.0,-1.0,0.0,-9.0,0.0,0.0,0.0,0.0,0.0,0.0,0.0,0.0,0
-11.0,-8.0,25.0,20.0,-3.0,-10.0,4.0,-10.0,0.0,0.0,0.0,0.0,0.0,0.0,0.0,0.0,0
-16.0,-10.0,25.0,26.0,-4.0,-9.0,-3.0,-7.0,0.0,0.0,0.0,0.0,0.0,0.0,0.0,0.0,0
-2.0,-6.0,18.0,15.0,4.0,-7.0,-12.0,1.0,0.0,0.0,0.0,0.0,0.0,0.0,0.0,0.0,0
3.0,-1.0,9.0,6.0,0.0,1.0,-13.0,0.0,0.0,0.0,0.0,0.0,0.0,0.0,0.0,0.0,0
10.0,-11.0,-8.0,-9.0,-3.0,1.0,-16.0,6.0,0.0,0.0,0.0,0.0,0.0,0.0,0.0,0.0,0
18.0,-4.0,-28.0,-20.0,-6.0,-7.0,-12.0,2.0,0.0,0.0,0.0,0.0,0.0,0.0,0.0,0.0,0
24.0,6.0,-37.0,-21.0,-4.0,-8.0,-15.0,5.0,0.0,0.0,0.0,0.0,0.0,0.0,0.0,0.0,0
23.0,1.0,-33.0,-17.0,-7.0,-3.0,-20.0,6.0,0.0,0.0,0.0,0.0,0.0,0.0,0.0,0.0,0
12.0,-6.0,-37.0,-14.0,-6.0,-1.0,-15.0,1.0,0.0,0.0,0.0,0.0,0.0,0.0,0.0,0.0,0
13.0,-17.0,-30.0,-9.0,4.0,-3.0,-15.0,8.0,0.0,0.0,0.0,0.0,0.0,0.0,0.0,0.0,0
10.0,-6.0,-18.0,2.0,-2.0,3.0,-13.0,8.0,0.0,0.0,0.0,0.0,0.0,0.0,0.0,0.0,0
-1.0,0.0,1.0,3.0,-1.0,3.0,-12.0,4.0,0.0,0.0,0.0,0.0,0.0,0.0,0.0,0.0,0
-6.0,-9.0,6.0,6.0,-3.0,-4.0,-8.0,1.0,0.0,0.0,0.0,0.0,0.0,0.0,0.0,0.0,0
-17.0,-14.0,12.0,12.0,-6.0,1.0,4.0,-4.0,0.0,0.0,0.0,0.0,0.0,0.0,0.0,0.0,0
-25.0,-10.0,16.0,7.0,5.0,5.0,16.0,-9.0,0.0,0.0,0.0,0.0,0.0,0.0,0.0,0.0,0
-22.0,5.0,27.0,6.0,6.0,3.0,22.0,-9.0,0.0,0.0,0.0,0.0,0.0,0.0,0.0,0.0,0
-28.0,16.0,33.0,10.0,2.0,3.0,30.0,-15.0,0.0,0.0,0.0,0.0,0.0,0.0,0.0,0.0,0
-25.0,15.0,24.0,5.0,-6.0,-7.0,24.0,-17.0,0.0,0.0,0.0,0.0,0.0,0.0,0.0,0.0,0
-14.0,4.0,6.0,0.0,-7.0,-11.0,4.0,-10.0,0.0,0.0,0.0,0.0,0.0,0.0,0.0,0.0,0
-23.0,-6.0,8.0,-10.0,-8.0,-10.0,8.0,-2.0,0.0,0.0,0.0,0.0,0.0,0.0,0.0,0.0,0
-13.0,6.0,2.0,-16.0,-2.0,-6.0,8.0,-5.0,0.0,0.0,0.0,0.0,0.0,0.0,0.0,0.0,0
4.0,7.0,-13.0,-24.0,1.0,-7.0,-1.0,-4.0,0.0,0.0,0.0,0.0,0.0,0.0,0.0,0.0,0
6.0,-2.0,-18.0,-18.0,-3.0,-3.0,-7.0,-10.0,0.0,0.0,0.0,0.0,0.0,0.0,0.0,0.0,0
6.0,-10.0,-27.0,-8.0,-3.0,1.0,-12.0,-7.0,0.0,0.0,0.0,0.0,0.0,0.0,0.0,0.0,0
11.0,-11.0,-23.0,-12.0,-6.0,1.0,-14.0,-4.0,0.0,0.0,0.0,0.0,0.0,0.0,0.0,0.0,0
9.0,-4.0,-22.0,-3.0,-6.0,-6.0,-14.0,4.0,0.0,0.0,0.0,0.0,0.0,0.0,0.0,0.0,0
16.0,-9.0,-16.0,-2.0,-4.0,-8.0,-19.0,9.0,0.0,0.0,0.0,0.0,0.0,0.0,0.0,0.0,0
20.0,-2.0,-11.0,7.0,-6.0,2.0,-25.0,6.0,0.0,0.0,0.0,0.0,0.0,0.0,0.0,0.0,0
13.0,1.0,0.0,8.0,-7.0,-2.0,-14.0,4.0,0.0,0.0,0.0,0.0,0.0,0.0,0.0,0.0,0
17.0,-9.0,-2.0,10.0,-7.0,-6.0,-22.0,8.0,0.0,0.0,0.0,0.0,0.0,0.0,0.0,0.0,0
17.0,-11.0,-5.0,7.0,-3.0,0.0,-15.0,3.0,0.0,0.0,0.0,0.0,0.0,0.0,0.0,0.0,0
2.0,-16.0,-4.0,3.0,-4.0,-1.0,-7.0,1.0,0.0,0.0,0.0,0.0,0.0,0.0,0.0,0.0,0
-8.0,-12.0,-3.0,2.0,-3.0,2.0,-4.0,-3.0,0.0,0.0,0.0,0.0,0.0,0.0,0.0,0.0,0
-14.0,-6.0,6.0,2.0,3.0,5.0,2.0,-2.0,0.0,0.0,0.0,0.0,0.0,0.0,0.0,0.0,0
-25.0,1.0,10.0,-3.0,8.0,1.0,18.0,-8.0,0.0,0.0,0.0,0.0,0.0,0.0,0.0,0.0,0
-29.0,4.0,12.0,-6.0,4.0,2.0,17.0,-9.0,0.0,0.0,0.0,0.0,0.0,0.0,0.0,0.0,0
-29.0,12.0,14.0,-7.0,3.0,1.0,19.0,-15.0,0.0,0.0,0.0,0.0,0.0,0.0,0.0,0.0,0
-24.0,13.0,8.0,-9.0,-3.0,-2.0,22.0,-11.0,0.0,0.0,0.0,0.0,0.0,0.0,0.0,0.0,0
-15.0,10.0,-3.0,-9.0,-2.0,-2.0,18.0,-8.0,0.0,0.0,0.0,0.0,0.0,0.0,0.0,0.0,0
-9.0,8.0,3.0,-4.0,-4.0,-5.0,10.0,-7.0,0.0,0.0,0.0,0.0,0.0,0.0,0.0,0.0,0
1.0,4.0,12.0,1.0,0.0,-4.0,3.0,0.0,0.0,0.0,0.0,0.0,0.0,0.0,0.0,0.0,0
1.0,-5.0,22.0,8.0,-3.0,-7.0,-3.0,-5.0,0.0,0.0,0.0,0.0,0.0,0.0,0.0,0.0,0
4.0,-6.0,16.0,1.0,-4.0,-9.0,-7.0,-4.0,0.0,0.0,0.0,0.0,0.0,0.0,0.0,0.0,0
3.0,-16.0,-7.0,-8.0,-4.0,0.0,-15.0,1.0,0.0,0.0,0.0,0.0,0.0,0.0,0.0,0.0,0
5.0,-16.0,-26.0,-11.0,-3.0,-2.0,-19.0,-3.0,0.0,0.0,0.0,0.0,0.0,0.0,0.0,0.0,0
15.0,-10.0,-40.0,-18.0,-14.0,-7.0,-17.0,-4.0,0.0,0.0,0.0,0.0,0.0,0.0,0.0,0.0,0
22.0,-7.0,-51.0,-15.0,-10.0,-8.0,-22.0,9.0,0.0,0.0,0.0,0.0,0.0,0.0,0.0,0.0,0
11.0,-4.0,-35.0,-9.0,-1.0,-2.0,-17.0,6.0,0.0,0.0,0.0,0.0,0.0,0.0,0.0,0.0,0
8.0,-8.0,-12.0,7.0,-1.0,1.0,-15.0,4.0,0.0,0.0,0.0,0.0,0.0,0.0,0.0,0.0,0
20.0,-5.0,-4.0,10.0,-5.0,0.0,-21.0,7.0,0.0,0.0,0.0,0.0,0.0,0.0,0.0,0.0,0
17.0,-3.0,5.0,14.0,4.0,7.0,-16.0,7.0,0.0,0.0,0.0,0.0,0.0,0.0,0.0,0.0,0
1.0,-6.0,15.0,6.0,11.0,3.0,-11.0,7.0,0.0,0.0,0.0,0.0,0.0,0.0,0.0,0.0,0
-8.0,-9.0,18.0,1.0,-2.0,3.0,1.0,-1.0,0.0,0.0,0.0,0.0,0.0,0.0,0.0,0.0,0
-20.0,-6.0,14.0,1.0,-3.0,1.0,9.0,-12.0,0.0,0.0,0.0,0.0,0.0,0.0,0.0,0.0,0
-23.0,2.0,9.0,-3.0,-1.0,0.0,21.0,-7.0,0.0,0.0,0.0,0.0,0.0,0.0,0.0,0.0,0
-14.0,10.0,13.0,-3.0,-4.0,-10.0,16.0,-9.0,0.0,0.0,0.0,0.0,0.0,0.0,0.0,0.0,0
-29.0,15.0,15.0,-11.0,2.0,-7.0,23.0,-8.0,0.0,0.0,0.0,0.0,0.0,0.0,0.0,0.0,0
-42.0,2.0,9.0,-15.0,-6.0,-1.0,18.0,-18.0,0.0,0.0,0.0,0.0,0.0,0.0,0.0,0.0,0
-16.0,0.0,-3.0,-15.0,-6.0,-7.0,1.0,-18.0,0.0,0.0,0.0,0.0,0.0,0.0,0.0,0.0,0
2.0,2.0,-5.0,-8.0,-14.0,-3.0,7.0,-9.0,0.0,0.0,0.0,0.0,0.0,0.0,0.0,0.0,0
-5.0,13.0,-6.0,-3.0,-10.0,-4.0,7.0,-8.0,0.0,0.0,0.0,0.0,0.0,0.0,0.0,0.0,0
-8.0,22.0,1.0,13.0,4.0,-4.0,-2.0,0.0,0.0,0.0,0.0,0.0,0.0,0.0,0.0,0.0,0
10.0,9.0,2.0,16.0,7.0,0.0,-5.0,-6.0,0.0,0.0,0.0,0.0,0.0,0.0,0.0,0.0,0
15.0,-13.0,-4.0,13.0,2.0,2.0,-6.0,3.0,0.0,0.0,0.0,0.0,0.0,0.0,0.0,0.0,0
9.0,-34.0,-6.0,-1.0,-1.0,-1.0,-11.0,7.0,0.0,0.0,0.0,0.0,0.0,0.0,0.0,0.0,0
10.0,-36.0,-8.0,-4.0,1.0,-10.0,-19.0,4.0,0.0,0.0,0.0,0.0,0.0,0.0,0.0,0.0,0
17.0,-35.0,-22.0,-7.0,-2.0,-4.0,-27.0,7.0,0.0,0.0,0.0,0.0,0.0,0.0,0.0,0.0,0
9.0,-34.0,-24.0,-12.0,-6.0,0.0,-14.0,3.0,0.0,0.0,0.0,0.0,0.0,0.0,0.0,0.0,0
11.0,-11.0,-13.0,-9.0,-9.0,-6.0,-11.0,5.0,0.0,0.0,0.0,0.0,0.0,0.0,0.0,0.0,0
27.0,23.0,-12.0,-6.0,-5.0,-2.0,-23.0,12.0,0.0,0.0,0.0,0.0,0.0,0.0,0.0,0.0,0
20.0,66.0,0.0,-4.0,-4.0,3.0,-20.0,8.0,0.0,0.0,0.0,0.0,0.0,0.0,0.0,0.0,0
9.0,80.0,2.0,-20.0,-10.0,-4.0,-10.0,-8.0,0.0,0.0,0.0,0.0,0.0,0.0,0.0,0.0,0
1.0,28.0,-2.0,-25.0,-15.0,-5.0,-2.0,-5.0,0.0,0.0,0.0,0.0,0.0,0.0,0.0,0.0,0
-33.0,-40.0,-3.0,-17.0,-13.0,-1.0,1.0,-5.0,0.0,0.0,0.0,0.0,0.0,0.0,0.0,0.0,0
-54.0,-78.0,-21.0,-2.0,-6.0,-3.0,12.0,-6.0,0.0,0.0,0.0,0.0,0.0,0.0,0.0,0.0,0
-55.0,-84.0,-19.0,7.0,7.0,-3.0,16.0,-4.0,0.0,0.0,0.0,0.0,0.0,0.0,0.0,0.0,0
-43.0,-57.0,-3.0,22.0,17.0,6.0,25.0,-14.0,0.0,0.0,0.0,0.0,0.0,0.0,0.0,0.0,0
-14.0,-9.0,11.0,24.0,18.0,4.0,21.0,-13.0,0.0,0.0,0.0,0.0,0.0,0.0,0.0,0.0,0
14.0,39.0,34.0,24.0,5.0,-3.0,13.0,-1.0,0.0,0.0,0.0,0.0,0.0,0.0,0.0,0.0,0
19.0,59.0,39.0,21.0,0.0,-5.0,11.0,-2.0,0.0,0.0,0.0,0.0,0.0,0.0,0.0,0.0,0
14.0,53.0,37.0,3.0,-4.0,-14.0,1.0,-11.0,0.0,0.0,0.0,0.0,0.0,0.0,0.0,0.0,0
2.0,30.0,16.0,-8.0,-1.0,-9.0,-1.0,-3.0,0.0,0.0,0.0,0.0,0.0,0.0,0.0,0.0,0
9.0,13.0,-1.0,-24.0,-1.0,-5.0,-12.0,-4.0,0.0,0.0,0.0,0.0,0.0,0.0,0.0,0.0,0
7.0,1.0,-11.0,-28.0,-6.0,4.0,-14.0,1.0,0.0,0.0,0.0,0.0,0.0,0.0,0.0,0.0,0
3.0,-15.0,-34.0,-19.0,-5.0,7.0,-11.0,-1.0,0.0,0.0,0.0,0.0,0.0,0.0,0.0,0.0,0
1.0,-28.0,-41.0,-12.0,-7.0,-8.0,-14.0,1.0,0.0,0.0,0.0,0.0,0.0,0.0,0.0,0.0,0
6.0,-43.0,-39.0,-10.0,-15.0,-10.0,-29.0,8.0,0.0,0.0,0.0,0.0,0.0,0.0,0.0,0.0,0
1.0,-35.0,-28.0,-9.0,-8.0,-8.0,-22.0,4.0,0.0,0.0,0.0,0.0,0.0,0.0,0.0,0.0,0
6.0,-9.0,-13.0,1.0,1.0,-5.0,-12.0,3.0,0.0,0.0,0.0,0.0,0.0,0.0,0.0,0.0,0
17.0,-2.0,-2.0,4.0,-3.0,-1.0,-23.0,12.0,0.0,0.0,0.0,0.0,0.0,0.0,0.0,0.0,0
15.0,0.0,3.0,6.0,-8.0,2.0,-16.0,11.0,0.0,0.0,0.0,0.0,0.0,0.0,0.0,0.0,0
3.0,-10.0,8.0,9.0,-7.0,-1.0,-5.0,1.0,0.0,0.0,0.0,0.0,0.0,0.0,0.0,0.0,0
0.0,-2.0,8.0,11.0,-1.0,2.0,0.0,-5.0,0.0,0.0,0.0,0.0,0.0,0.0,0.0,0.0,0
-15.0,-1.0,10.0,6.0,2.0,2.0,9.0,-2.0,0.0,0.0,0.0,0.0,0.0,0.0,0.0,0.0,0
-23.0,6.0,5.0,0.0,1.0,0.0,11.0,-6.0,0.0,0.0,0.0,0.0,0.0,0.0,0.0,0.0,0
-17.0,3.0,-4.0,-5.0,5.0,5.0,19.0,-12.0,0.0,0.0,0.0,0.0,0.0,0.0,0.0,0.0,0
-23.0,-1.0,8.0,-4.0,3.0,-1.0,28.0,-17.0,0.0,0.0,0.0,0.0,0.0,0.0,0.0,0.0,0
-29.0,2.0,4.0,-6.0,-1.0,-6.0,24.0,-14.0,0.0,0.0,0.0,0.0,0.0,0.0,0.0,0.0,0
-6.0,4.0,4.0,-8.0,-4.0,-7.0,7.0,-11.0,0.0,0.0,0.0,0.0,0.0,0.0,0.0,0.0,0
-3.0,19.0,14.0,2.0,-4.0,-7.0,6.0,-7.0,0.0,0.0,0.0,0.0,0.0,0.0,0.0,0.0,0
-12.0,21.0,12.0,5.0,2.0,-3.0,2.0,-9.0,0.0,0.0,0.0,0.0,0.0,0.0,0.0,0.0,0
-1.0,12.0,10.0,0.0,9.0,5.0,-2.0,-3.0,0.0,0.0,0.0,0.0,0.0,0.0,0.0,0.0,0
-1.0,2.0,3.0,0.0,6.0,-7.0,-6.0,2.0,0.0,0.0,0.0,0.0,0.0,0.0,0.0,0.0,0
0.0,-16.0,-3.0,-4.0,-5.0,-6.0,-9.0,4.0,0.0,0.0,0.0,0.0,0.0,0.0,0.0,0.0,0
-1.0,-22.0,-18.0,-16.0,-19.0,-5.0,-11.0,1.0,0.0,0.0,0.0,0.0,0.0,0.0,0.0,0.0,0
10.0,-19.0,-22.0,-14.0,-24.0,-9.0,-17.0,-1.0,0.0,0.0,0.0,0.0,0.0,0.0,0.0,0.0,0
22.0,-15.0,-24.0,-8.0,-18.0,-3.0,-26.0,5.0,0.0,0.0,0.0,0.0,0.0,0.0,0.0,0.0,0
19.0,-12.0,-13.0,2.0,-4.0,-6.0,-19.0,5.0,0.0,0.0,0.0,0.0,0.0,0.0,0.0,0.0,0
4.0,-11.0,-9.0,0.0,-7.0,-4.0,-13.0,0.0,0.0,0.0,0.0,0.0,0.0,0.0,0.0,0.0,0
15.0,-13.0,-20.0,0.0,-9.0,-4.0,-26.0,8.0,0.0,0.0,0.0,0.0,0.0,0.0,0.0,0.0,0
17.0,-8.0,-17.0,-5.0,5.0,3.0,-19.0,0.0,0.0,0.0,0.0,0.0,0.0,0.0,0.0,0.0,0
6.0,-1.0,-6.0,-2.0,8.0,7.0,-9.0,3.0,0.0,0.0,0.0,0.0,0.0,0.0,0.0,0.0,0
1.0,-1.0,-12.0,-4.0,5.0,4.0,-6.0,0.0,0.0,0.0,0.0,0.0,0.0,0.0,0.0,0.0,0
-13.0,6.0,-3.0,1.0,5.0,3.0,5.0,-10.0,0.0,0.0,0.0,0.0,0.0,0.0,0.0,0.0,0
-30.0,3.0,-3.0,2.0,4.0,4.0,16.0,-9.0,0.0,0.0,0.0,0.0,0.0,0.0,0.0,0.0,0
-28.0,0.0,-1.0,9.0,-4.0,-3.0,17.0,-3.0,0.0,0.0,0.0,0.0,0.0,0.0,0.0,0.0,0
-38.0,3.0,18.0,3.0,-1.0,-1.0,27.0,-12.0,0.0,0.0,0.0,0.0,0.0,0.0,0.0,0.0,0
-24.0,14.0,28.0,5.0,4.0,-4.0,24.0,-14.0,0.0,0.0,0.0,0.0,0.0,0.0,0.0,0.0,0
-9.0,12.0,24.0,1.0,2.0,-7.0,13.0,-8.0,0.0,0.0,0.0,0.0,0.0,0.0,0.0,0.0,0
-3.0,-1.0,26.0,1.0,-8.0,-7.0,10.0,-6.0,0.0,0.0,0.0,0.0,0.0,0.0,0.0,0.0,0
-5.0,4.0,15.0,4.0,-3.0,-11.0,6.0,-4.0,0.0,0.0,0.0,0.0,0.0,0.0,0.0,0.0,0
1.0,0.0,11.0,-7.0,-6.0,-10.0,-2.0,-3.0,0.0,0.0,0.0,0.0,0.0,0.0,0.0,0.0,0
9.0,0.0,-10.0,-15.0,-4.0,-1.0,-9.0,-4.0,0.0,0.0,0.0,0.0,0.0,0.0,0.0,0.0,0
3.0,-8.0,-23.0,-15.0,-5.0,-4.0,-16.0,-6.0,0.0,0.0,0.0,0.0,0.0,0.0,0.0,0.0,0
5.0,-5.0,-20.0,-9.0,-8.0,1.0,-16.0,-2.0,0.0,0.0,0.0,0.0,0.0,0.0,0.0,0.0,0
17.0,-3.0,-15.0,3.0,-1.0,-4.0,-13.0,2.0,0.0,0.0,0.0,0.0,0.0,0.0,0.0,0.0,0
15.0,-6.0,-20.0,0.0,-5.0,-2.0,-29.0,12.0,0.0,0.0,0.0,0.0,0.0,0.0,0.0,0.0,0
8.0,-8.0,-17.0,-4.0,1.0,-3.0,-19.0,7.0,0.0,0.0,0.0,0.0,0.0,0.0,0.0,0.0,0
8.0,0.0,-13.0,-5.0,-3.0,-2.0,-13.0,5.0,0.0,0.0,0.0,0.0,0.0,0.0,0.0,0.0,0
17.0,-10.0,-17.0,-8.0,-5.0,0.0,-24.0,1.0,0.0,0.0,0.0,0.0,0.0,0.0,0.0,0.0,0
14.0,-12.0,-22.0,0.0,-4.0,0.0,-21.0,3.0,0.0,0.0,0.0,0.0,0.0,0.0,0.0,0.0,0
0.0,-7.0,-21.0,-5.0,2.0,1.0,-8.0,5.0,0.0,0.0,0.0,0.0,0.0,0.0,0.0,0.0,0
4.0,-4.0,-7.0,-5.0,-3.0,-5.0,-1.0,5.0,0.0,0.0,0.0,0.0,0.0,0.0,0.0,0.0,0
-7.0,4.0,14.0,3.0,-3.0,-2.0,14.0,-2.0,0.0,0.0,0.0,0.0,0.0,0.0,0.0,0.0,0
-23.0,3.0,17.0,15.0,4.0,0.0,18.0,-7.0,0.0,0.0,0.0,0.0,0.0,0.0,0.0,0.0,0
-34.0,-9.0,20.0,17.0,4.0,3.0,16.0,-14.0,0.0,0.0,0.0,0.0,0.0,0.0,0.0,0.0,0
-35.0,-8.0,33.0,15.0,5.0,7.0,24.0,-10.0,0.0,0.0,0.0,0.0,0.0,0.0,0.0,0.0,0
-28.0,-3.0,18.0,-5.0,-4.0,-2.0,22.0,-11.0,0.0,0.0,0.0,0.0,0.0,0.0,0.0,0.0,0
-15.0,3.0,6.0,-15.0,-12.0,-4.0,5.0,-6.0,0.0,0.0,0.0,0.0,0.0,0.0,0.0,0.0,0
-19.0,15.0,10.0,-13.0,-8.0,-7.0,11.0,-14.0,0.0,0.0,0.0,0.0,0.0,0.0,0.0,0.0,0
-12.0,16.0,-1.0,-11.0,-8.0,-6.0,5.0,-13.0,0.0,0.0,0.0,0.0,0.0,0.0,0.0,0.0,0
0.0,8.0,-7.0,-1.0,-2.0,-3.0,1.0,-7.0,0.0,0.0,0.0,0.0,0.0,0.0,0.0,0.0,0
18.0,9.0,-5.0,4.0,0.0,-8.0,-11.0,0.0,0.0,0.0,0.0,0.0,0.0,0.0,0.0,0.0,0
24.0,6.0,-3.0,4.0,5.0,-6.0,-9.0,5.0,0.0,0.0,0.0,0.0,0.0,0.0,0.0,0.0,0
17.0,-11.0,-11.0,-12.0,-4.0,-4.0,-9.0,3.0,0.0,0.0,0.0,0.0,0.0,0.0,0.0,0.0,0
10.0,-21.0,-19.0,-27.0,-14.0,-3.0,-18.0,-2.0,0.0,0.0,0.0,0.0,0.0,0.0,0.0,0.0,0
19.0,-19.0,-31.0,-25.0,-8.0,-8.0,-26.0,3.0,0.0,0.0,0.0,0.0,0.0,0.0,0.0,0.0,0
10.0,-6.0,-28.0,-7.0,-2.0,-6.0,-18.0,5.0,0.0,0.0,0.0,0.0,0.0,0.0,0.0,0.0,0
1.0,-9.0,-16.0,8.0,-2.0,-3.0,-16.0,7.0,0.0,0.0,0.0,0.0,0.0,0.0,0.0,0.0,0
11.0,-12.0,-17.0,12.0,-3.0,1.0,-26.0,3.0,0.0,0.0,0.0,0.0,0.0,0.0,0.0,0.0,0
10.0,-17.0,-19.0,4.0,-6.0,5.0,-19.0,-7.0,0.0,0.0,0.0,0.0,0.0,0.0,0.0,0.0,0
4.0,-7.0,-6.0,0.0,-1.0,5.0,-8.0,0.0,0.0,0.0,0.0,0.0,0.0,0.0,0.0,0.0,0
4.0,0.0,2.0,4.0,-2.0,0.0,0.0,-1.0,0.0,0.0,0.0,0.0,0.0,0.0,0.0,0.0,0
-18.0,-1.0,3.0,3.0,2.0,1.0,11.0,-1.0,0.0,0.0,0.0,0.0,0.0,0.0,0.0,0.0,0
-29.0,-7.0,24.0,7.0,2.0,-1.0,11.0,-3.0,0.0,0.0,0.0,0.0,0.0,0.0,0.0,0.0,0
-30.0,-2.0,29.0,12.0,1.0,-3.0,22.0,-8.0,0.0,0.0,0.0,0.0,0.0,0.0,0.0,0.0,0
-27.0,9.0,28.0,7.0,-1.0,4.0,27.0,-11.0,0.0,0.0,0.0,0.0,0.0,0.0,0.0,0.0,0
-17.0,18.0,25.0,0.0,8.0,-2.0,23.0,-10.0,0.0,0.0,0.0,0.0,0.0,0.0,0.0,0.0,0
2.0,20.0,11.0,-5.0,6.0,-8.0,8.0,-3.0,0.0,0.0,0.0,0.0,0.0,0.0,0.0,0.0,0
-1.0,14.0,5.0,-16.0,-10.0,-12.0,2.0,-13.0,0.0,0.0,0.0,0.0,0.0,0.0,0.0,0.0,0
-7.0,1.0,-4.0,-23.0,-9.0,-6.0,4.0,-7.0,0.0,0.0,0.0,0.0,0.0,0.0,0.0,0.0,0
-8.0,-5.0,-16.0,-21.0,-8.0,-8.0,1.0,-3.0,0.0,0.0,0.0,0.0,0.0,0.0,0.0,0.0,0
-2.0,-10.0,-15.0,-14.0,-4.0,-5.0,-13.0,-11.0,0.0,0.0,0.0,0.0,0.0,0.0,0.0,0.0,0
-3.0,-1.0,-8.0,1.0,4.0,-4.0,-16.0,-12.0,0.0,0.0,0.0,0.0,0.0,0.0,0.0,0.0,0
4.0,2.0,-5.0,12.0,7.0,0.0,-13.0,-1.0,0.0,0.0,0.0,0.0,0.0,0.0,0.0,0.0,0
11.0,-3.0,-9.0,10.0,0.0,-2.0,-14.0,6.0,0.0,0.0,0.0,0.0,0.0,0.0,0.0,0.0,0
28.0,-18.0,-20.0,3.0,-7.0,-3.0,-26.0,15.0,0.0,0.0,0.0,0.0,0.0,0.0,0.0,0.0,0
9.0,-26.0,-20.0,1.0,-13.0,-1.0,-18.0,11.0,0.0,0.0,0.0,0.0,0.0,0.0,0.0,0.0,0
-9.0,-25.0,-11.0,0.0,-12.0,-1.0,-10.0,5.0,0.0,0.0,0.0,0.0,0.0,0.0,0.0,0.0,0
14.0,-22.0,-16.0,-7.0,-8.0,1.0,-16.0,2.0,0.0,0.0,0.0,0.0,0.0,0.0,0.0,0.0,0
14.0,-25.0,-16.0,-12.0,-5.0,0.0,-11.0,2.0,0.0,0.0,0.0,0.0,0.0,0.0,0.0,0.0,0
-14.0,-27.0,-9.0,-12.0,-3.0,-2.0,-8.0,-3.0,0.0,0.0,0.0,0.0,0.0,0.0,0.0,0.0,0
-3.0,-24.0,-12.0,1.0,-1.0,3.0,-6.0,-2.0,0.0,0.0,0.0,0.0,0.0,0.0,0.0,0.0,0
9.0,-5.0,6.0,6.0,4.0,4.0,8.0,-2.0,0.0,0.0,0.0,0.0,0.0,0.0,0.0,0.0,0
5.0,44.0,19.0,2.0,8.0,5.0,11.0,-4.0,0.0,0.0,0.0,0.0,0.0,0.0,0.0,0.0,0
-1.0,97.0,28.0,0.0,8.0,-4.0,19.0,-8.0,0.0,0.0,0.0,0.0,0.0,0.0,0.0,0.0,0
-16.0,87.0,31.0,0.0,2.0,-8.0,14.0,-14.0,0.0,0.0,0.0,0.0,0.0,0.0,0.0,0.0,0
-28.0,27.0,13.0,-8.0,-6.0,-8.0,15.0,-16.0,0.0,0.0,0.0,0.0,0.0,0.0,0.0,0.0,0
-35.0,-24.0,-14.0,-10.0,-4.0,-11.0,6.0,-10.0,0.0,0.0,0.0,0.0,0.0,0.0,0.0,0.0,0
-30.0,-52.0,-16.0,-5.0,4.0,0.0,8.0,-6.0,0.0,0.0,0.0,0.0,0.0,0.0,0.0,0.0,0
-23.0,-65.0,3.0,1.0,1.0,3.0,10.0,-7.0,0.0,0.0,0.0,0.0,0.0,0.0,0.0,0.0,0
-19.0,-55.0,5.0,4.0,-8.0,-2.0,7.0,-7.0,0.0,0.0,0.0,0.0,0.0,0.0,0.0,0.0,0
1.0,-33.0,2.0,-4.0,-4.0,-16.0,-5.0,1.0,0.0,0.0,0.0,0.0,0.0,0.0,0.0,0.0,0
6.0,0.0,13.0,5.0,-5.0,-8.0,-11.0,0.0,0.0,0.0,0.0,0.0,0.0,0.0,0.0,0.0,0
7.0,15.0,-3.0,2.0,-6.0,0.0,-21.0,-2.0,0.0,0.0,0.0,0.0,0.0,0.0,0.0,0.0,0
8.0,18.0,-20.0,-8.0,-7.0,-3.0,-14.0,3.0,0.0,0.0,0.0,0.0,0.0,0.0,0.0,0.0,0
38.0,31.0,-24.0,-9.0,-8.0,-6.0,-23.0,4.0,0.0,0.0,0.0,0.0,0.0,0.0,0.0,0.0,0
42.0,24.0,-21.0,-1.0,4.0,-5.0,-24.0,5.0,0.0,0.0,0.0,0.0,0.0,0.0,0.0,0.0,0
34.0,13.0,-22.0,-1.0,1.0,0.0,-10.0,5.0,0.0,0.0,0.0,0.0,0.0,0.0,0.0,0.0,0
32.0,-6.0,-25.0,0.0,-6.0,6.0,-21.0,6.0,0.0,0.0,0.0,0.0,0.0,0.0,0.0,0.0,0
6.0,-29.0,-21.0,0.0,-9.0,2.0,-20.0,9.0,0.0,0.0,0.0,0.0,0.0,0.0,0.0,0.0,0
-15.0,-31.0,-6.0,3.0,4.0,-2.0,-4.0,6.0,0.0,0.0,0.0,0.0,0.0,0.0,0.0,0.0,0
-19.0,-23.0,3.0,-1.0,-2.0,3.0,-1.0,-6.0,0.0,0.0,0.0,0.0,0.0,0.0,0.0,0.0,0
-32.0,0.0,17.0,-14.0,-10.0,-4.0,3.0,-9.0,0.0,0.0,0.0,0.0,0.0,0.0,0.0,0.0,0
-40.0,9.0,15.0,-7.0,-4.0,-4.0,11.0,-7.0,0.0,0.0,0.0,0.0,0.0,0.0,0.0,0.0,0
-26.0,9.0,14.0,1.0,-4.0,-1.0,16.0,-7.0,0.0,0.0,0.0,0.0,0.0,0.0,0.0,0.0,0
-24.0,8.0,18.0,-1.0,7.0,-1.0,30.0,-9.0,0.0,0.0,0.0,0.0,0.0,0.0,0.0,0.0,0
-21.0,6.0,13.0,-3.0,7.0,-3.0,20.0,-20.0,0.0,0.0,0.0,0.0,0.0,0.0,0.0,0.0,0
-7.0,6.0,2.0,-7.0,-7.0,-3.0,0.0,-16.0,0.0,0.0,0.0,0.0,0.0,0.0,0.0,0.0,0
-8.0,-3.0,2.0,-4.0,-7.0,-4.0,13.0,-7.0,0.0,0.0,0.0,0.0,0.0,0.0,0.0,0.0,0
-15.0,-12.0,2.0,-7.0,-2.0,-2.0,10.0,-6.0,0.0,0.0,0.0,0.0,0.0,0.0,0.0,0.0,0
-2.0,-5.0,0.0,-4.0,-5.0,-3.0,5.0,-4.0,0.0,0.0,0.0,0.0,0.0,0.0,0.0,0.0,0
18.0,8.0,0.0,8.0,1.0,-7.0,-7.0,-3.0,0.0,0.0,0.0,0.0,0.0,0.0,0.0,0.0,0
16.0,17.0,13.0,22.0,0.0,-7.0,-10.0,0.0,0.0,0.0,0.0,0.0,0.0,0.0,0.0,0.0,0
9.0,14.0,12.0,18.0,-5.0,-5.0,-12.0,1.0,0.0,0.0,0.0,0.0,0.0,0.0,0.0,0.0,0
15.0,-4.0,-4.0,6.0,-5.0,-8.0,-19.0,5.0,0.0,0.0,0.0,0.0,0.0,0.0,0.0,0.0,0
32.0,-12.0,-31.0,-14.0,-1.0,-5.0,-25.0,8.0,0.0,0.0,0.0,0.0,0.0,0.0,0.0,0.0,0
18.0,-25.0,-43.0,-23.0,-4.0,0.0,-19.0,3.0,0.0,0.0,0.0,0.0,0.0,0.0,0.0,0.0,0
-5.0,-23.0,-42.0,-20.0,-5.0,7.0,-13.0,0.0,0.0,0.0,0.0,0.0,0.0,0.0,0.0,0.0,0
-7.0,-19.0,-37.0,-23.0,-11.0,0.0,-19.0,8.0,0.0,0.0,0.0,0.0,0.0,0.0,0.0,0.0,0
4.0,-12.0,-22.0,-13.0,-6.0,-3.0,-16.0,8.0,0.0,0.0,0.0,0.0,0.0,0.0,0.0,0.0,0
1.0,-9.0,4.0,2.0,0.0,3.0,-5.0,1.0,0.0,0.0,0.0,0.0,0.0,0.0,0.0,0.0,0
1.0,7.0,19.0,4.0,-4.0,4.0,-5.0,-4.0,0.0,0.0,0.0,0.0,0.0,0.0,0.0,0.0,0
-4.0,13.0,11.0,-6.0,-10.0,-5.0,10.0,-4.0,0.0,0.0,0.0,0.0,0.0,0.0,0.0,0.0,0
-11.0,8.0,15.0,-1.0,-5.0,-4.0,14.0,-10.0,0.0,0.0,0.0,0.0,0.0,0.0,0.0,0.0,0
-14.0,3.0,13.0,5.0,2.0,-6.0,12.0,-10.0,0.0,0.0,0.0,0.0,0.0,0.0,0.0,0.0,0
-35.0,-8.0,23.0,10.0,8.0,-2.0,19.0,-14.0,0.0,0.0,0.0,0.0,0.0,0.0,0.0,0.0,0
-31.0,-6.0,27.0,6.0,1.0,0.0,24.0,-20.0,0.0,0.0,0.0,0.0,0.0,0.0,0.0,0.0,0
-20.0,9.0,13.0,1.0,-2.0,-4.0,17.0,-10.0,0.0,0.0,0.0,0.0,0.0,0.0,0.0,0.0,0
-16.0,6.0,-1.0,2.0,3.0,-1.0,13.0,1.0,0.0,0.0,0.0,0.0,0.0,0.0,0.0,0.0,0
-10.0,5.0,-11.0,-3.0,2.0,-1.0,8.0,0.0,0.0,0.0,0.0,0.0,0.0,0.0,0.0,0.0,0
2.0,1.0,-5.0,-7.0,-2.0,-4.0,0.0,-7.0,0.0,0.0,0.0,0.0,0.0,0.0,0.0,0.0,0
8.0,1.0,-6.0,-1.0,-2.0,-14.0,-16.0,-3.0,0.0,0.0,0.0,0.0,0.0,0.0,0.0,0.0,0
13.0,2.0,1.0,-3.0,1.0,-3.0,-17.0,-5.0,0.0,0.0,0.0,0.0,0.0,0.0,0.0,0.0,0
9.0,-4.0,-1.0,-5.0,-6.0,3.0,-16.0,7.0,0.0,0.0,0.0,0.0,0.0,0.0,0.0,0.0,0
7.0,-12.0,-19.0,1.0,-3.0,5.0,-16.0,3.0,0.0,0.0,0.0,0.0,0.0,0.0,0.0,0.0,0
18.0,-18.0,-18.0,-5.0,-9.0,-6.0,-25.0,1.0,0.0,0.0,0.0,0.0,0.0,0.0,0.0,0.0,0
15.0,-12.0,-6.0,-6.0,-7.0,0.0,-18.0,2.0,0.0,0.0,0.0,0.0,0.0,0.0,0.0,0.0,0
9.0,2.0,-12.0,-5.0,-7.0,-2.0,-10.0,1.0,0.0,0.0,0.0,0.0,0.0,0.0,0.0,0.0,0
8.0,-7.0,-38.0,-12.0,-12.0,-8.0,-18.0,5.0,0.0,0.0,0.0,0.0,0.0,0.0,0.0,0.0,0
11.0,-16.0,-31.0,-9.0,-12.0,-2.0,-12.0,10.0,0.0,0.0,0.0,0.0,0.0,0.0,0.0,0.0,0
14.0,-5.0,-11.0,-8.0,-8.0,2.0,-5.0,5.0,0.0,0.0,0.0,0.0,0.0,0.0,0.0,0.0,0
6.0,-4.0,2.0,-12.0,-2.0,3.0,-7.0,0.0,0.0,0.0,0.0,0.0,0.0,0.0,0.0,0.0,0
-20.0,-2.0,18.0,-3.0,0.0,0.0,10.0,-6.0,0.0,0.0,0.0,0.0,0.0,0.0,0.0,0.0,0
-32.0,0.0,21.0,7.0,4.0,2.0,11.0,-6.0,0.0,0.0,0.0,0.0,0.0,0.0,0.0,0.0,0
-28.0,6.0,17.0,10.0,10.0,4.0,14.0,-8.0,0.0,0.0,0.0,0.0,0.0,0.0,0.0,0.0,0
-34.0,9.0,24.0,8.0,7.0,1.0,23.0,-8.0,0.0,0.0,0.0,0.0,0.0,0.0,0.0,0.0,0
-22.0,16.0,16.0,4.0,2.0,-5.0,21.0,-15.0,0.0,0.0,0.0,0.0,0.0,0.0,0.0,0.0,0
-9.0,0.0,10.0,5.0,7.0,-9.0,15.0,-7.0,0.0,0.0,0.0,0.0,0.0,0.0,0.0,0.0,0
-16.0,-7.0,11.0,5.0,6.0,-7.0,11.0,-2.0,0.0,0.0,0.0,0.0,0.0,0.0,0.0,0.0,0
-14.0,-4.0,4.0,-3.0,-2.0,-4.0,3.0,-6.0,0.0,0.0,0.0,0.0,0.0,0.0,0.0,0.0,0
-5.0,-6.0,-5.0,-13.0,-12.0,-6.0,-5.0,-13.0,0.0,0.0,0.0,0.0,0.0,0.0,0.0,0.0,0
5.0,-8.0,-6.0,-15.0,-12.0,-4.0,-7.0,-12.0,0.0,0.0,0.0,0.0,0.0,0.0,0.0,0.0,0
14.0,0.0,-7.0,-13.0,-9.0,-10.0,-5.0,-4.0,0.0,0.0,0.0,0.0,0.0,0.0,0.0,0.0,0
13.0,-6.0,-16.0,-16.0,-12.0,-7.0,-13.0,-1.0,0.0,0.0,0.0,0.0,0.0,0.0,0.0,0.0,0
18.0,-7.0,-26.0,-14.0,-6.0,-5.0,-22.0,2.0,0.0,0.0,0.0,0.0,0.0,0.0,0.0,0.0,0
27.0,5.0,-35.0,-15.0,-4.0,-6.0,-33.0,8.0,0.0,0.0,0.0,0.0,0.0,0.0,0.0,0.0,0
18.0,3.0,-25.0,-9.0,-8.0,0.0,-16.0,13.0,0.0,0.0,0.0,0.0,0.0,0.0,0.0,0.0,0
3.0,3.0,-10.0,11.0,-6.0,0.0,-4.0,4.0,0.0,0.0,0.0,0.0,0.0,0.0,0.0,0.0,0
9.0,-12.0,-4.0,16.0,1.0,1.0,-20.0,6.0,0.0,0.0,0.0,0.0,0.0,0.0,0.0,0.0,0
15.0,-22.0,-12.0,11.0,8.0,0.0,-18.0,8.0,0.0,0.0,0.0,0.0,0.0,0.0,0.0,0.0,0
-2.0,-26.0,0.0,8.0,5.0,2.0,-5.0,2.0,0.0,0.0,0.0,0.0,0.0,0.0,0.0,0.0,0
-16.0,-22.0,2.0,6.0,-2.0,2.0,1.0,2.0,0.0,0.0,0.0,0.0,0.0,0.0,0.0,0.0,0
-24.0,-8.0,2.0,-3.0,-9.0,-3.0,9.0,-8.0,0.0,0.0,0.0,0.0,0.0,0.0,0.0,0.0,0
-13.0,15.0,17.0,-4.0,2.0,7.0,17.0,-11.0,0.0,0.0,0.0,0.0,0.0,0.0,0.0,0.0,0
-11.0,27.0,20.0,0.0,-4.0,7.0,11.0,-8.0,0.0,0.0,0.0,0.0,0.0,0.0,0.0,0.0,0
-27.0,22.0,15.0,3.0,0.0,-4.0,16.0,-15.0,0.0,0.0,0.0,0.0,0.0,0.0,0.0,0.0,0
-23.0,11.0,14.0,5.0,2.0,-13.0,22.0,-19.0,0.0,0.0,0.0,0.0,0.0,0.0,0.0,0.0,0
-20.0,0.0,3.0,-3.0,2.0,-9.0,13.0,-9.0,0.0,0.0,0.0,0.0,0.0,0.0,0.0,0.0,0
-16.0,-4.0,3.0,-11.0,-2.0,0.0,10.0,-4.0,0.0,0.0,0.0,0.0,0.0,0.0,0.0,0.0,0
-9.0,-11.0,-2.0,-13.0,-9.0,-5.0,3.0,-3.0,0.0,0.0,0.0,0.0,0.0,0.0,0.0,0.0,0
0.0,-9.0,-10.0,-12.0,-2.0,-8.0,-3.0,-4.0,0.0,0.0,0.0,0.0,0.0,0.0,0.0,0.0,0
16.0,-1.0,-5.0,-4.0,-5.0,-3.0,-11.0,1.0,0.0,0.0,0.0,0.0,0.0,0.0,0.0,0.0,0
12.0,1.0,-1.0,-7.0,-5.0,3.0,-12.0,0.0,0.0,0.0,0.0,0.0,0.0,0.0,0.0,0.0,0
7.0,1.0,-11.0,2.0,-3.0,0.0,-7.0,3.0,0.0,0.0,0.0,0.0,0.0,0.0,0.0,0.0,0
9.0,-6.0,-23.0,-1.0,-3.0,0.0,-17.0,6.0,0.0,0.0,0.0,0.0,0.0,0.0,0.0,0.0,0
15.0,-12.0,-26.0,4.0,-2.0,-7.0,-25.0,3.0,0.0,0.0,0.0,0.0,0.0,0.0,0.0,0.0,0
12.0,-9.0,-7.0,0.0,0.0,-4.0,-20.0,-2.0,0.0,0.0,0.0,0.0,0.0,0.0,0.0,0.0,0
3.0,-10.0,-4.0,-2.0,-1.0,-3.0,-12.0,0.0,0.0,0.0,0.0,0.0,0.0,0.0,0.0,0.0,0
9.0,-12.0,-13.0,0.0,-6.0,-5.0,-21.0,5.0,0.0,0.0,0.0,0.0,0.0,0.0,0.0,0.0,0
18.0,-9.0,-20.0,-2.0,-4.0,0.0,-19.0,13.0,0.0,0.0,0.0,0.0,0.0,0.0,0.0,0.0,0
9.0,-4.0,-16.0,-2.0,1.0,-1.0,-9.0,5.0,0.0,0.0,0.0,0.0,0.0,0.0,0.0,0.0,0
-5.0,-5.0,-4.0,2.0,-3.0,-4.0,-10.0,-2.0,0.0,0.0,0.0,0.0,0.0,0.0,0.0,0.0,0
-11.0,3.0,18.0,1.0,-7.0,-2.0,5.0,-12.0,0.0,0.0,0.0,0.0,0.0,0.0,0.0,0.0,0
-16.0,13.0,23.0,2.0,-1.0,-3.0,14.0,-7.0,0.0,0.0,0.0,0.0,0.0,0.0,0.0,0.0,0
-19.0,25.0,19.0,2.0,3.0,1.0,23.0,-4.0,0.0,0.0,0.0,0.0,0.0,0.0,0.0,0.0,0
-23.0,19.0,22.0,6.0,4.0,2.0,31.0,-11.0,0.0,0.0,0.0,0.0,0.0,0.0,0.0,0.0,0
-31.0,-9.0,12.0,-7.0,3.0,-2.0,29.0,-19.0,0.0,0.0,0.0,0.0,0.0,0.0,0.0,0.0,0
-36.0,-31.0,-13.0,-14.0,-1.0,-4.0,12.0,-15.0,0.0,0.0,0.0,0.0,0.0,0.0,0.0,0.0,0
-23.0,-38.0,-19.0,-12.0,-10.0,-1.0,10.0,-5.0,0.0,0.0,0.0,0.0,0.0,0.0,0.0,0.0,0
-14.0,-25.0,-11.0,0.0,-5.0,-1.0,3.0,-5.0,0.0,0.0,0.0,0.0,0.0,0.0,0.0,0.0,0
-18.0,-9.0,-2.0,0.0,0.0,-8.0,-8.0,-8.0,0.0,0.0,0.0,0.0,0.0,0.0,0.0,0.0,0
6.0,13.0,6.0,5.0,5.0,-5.0,-15.0,-2.0,0.0,0.0,0.0,0.0,0.0,0.0,0.0,0.0,0
46.0,33.0,9.0,9.0,7.0,-3.0,-10.0,1.0,0.0,0.0,0.0,0.0,0.0,0.0,0.0,0.0,0
46.0,45.0,9.0,7.0,-3.0,-1.0,-6.0,-5.0,0.0,0.0,0.0,0.0,0.0,0.0,0.0,0.0,0
25.0,49.0,15.0,3.0,-16.0,-1.0,-19.0,2.0,0.0,0.0,0.0,0.0,0.0,0.0,0.0,0.0,0
26.0,26.0,0.0,-2.0,-17.0,-6.0,-22.0,10.0,0.0,0.0,0.0,0.0,0.0,0.0,0.0,0.0,0
7.0,-21.0,-19.0,-8.0,-14.0,-6.0,-13.0,8.0,0.0,0.0,0.0,0.0,0.0,0.0,0.0,0.0,0
-15.0,-44.0,-26.0,-21.0,-11.0,-6.0,-13.0,-1.0,0.0,0.0,0.0,0.0,0.0,0.0,0.0,0.0,0
-10.0,-47.0,-46.0,-34.0,-8.0,0.0,-25.0,-2.0,0.0,0.0,0.0,0.0,0.0,0.0,0.0,0.0,0
-3.0,-54.0,-41.0,-21.0,-8.0,-2.0,-21.0,6.0,0.0,0.0,0.0,0.0,0.0,0.0,0.0,0.0,0
-2.0,-41.0,-27.0,-5.0,1.0,-1.0,-10.0,2.0,0.0,0.0,0.0,0.0,0.0,0.0,0.0,0.0,0
-4.0,-14.0,-18.0,0.0,6.0,-2.0,-6.0,3.0,0.0,0.0,0.0,0.0,0.0,0.0,0.0,0.0,0
-9.0,3.0,-6.0,13.0,7.0,6.0,8.0,0.0,0.0,0.0,0.0,0.0,0.0,0.0,0.0,0.0,0
-14.0,13.0,16.0,25.0,11.0,10.0,20.0,-9.0,0.0,0.0,0.0,0.0,0.0,0.0,0.0,0.0,0
-23.0,19.0,37.0,20.0,7.0,9.0,24.0,-10.0,0.0,0.0,0.0,0.0,0.0,0.0,0.0,0.0,0
-20.0,22.0,42.0,12.0,0.0,-1.0,22.0,-15.0,0.0,0.0,0.0,0.0,0.0,0.0,0.0,0.0,0
-19.0,3.0,34.0,4.0,-4.0,-8.0,22.0,-12.0,0.0,0.0,0.0,0.0,0.0,0.0,0.0,0.0,0
-10.0,19.0,20.0,0.0,-5.0,-14.0,8.0,-7.0,0.0,0.0,0.0,0.0,0.0,0.0,0.0,0.0,0
-7.0,39.0,20.0,1.0,-8.0,-9.0,10.0,-9.0,0.0,0.0,0.0,0.0,0.0,0.0,0.0,0.0,0
-4.0,32.0,10.0,-4.0,-3.0,-1.0,6.0,-8.0,0.0,0.0,0.0,0.0,0.0,0.0,0.0,0.0,0
-3.0,10.0,-4.0,-10.0,6.0,-3.0,-2.0,-5.0,0.0,0.0,0.0,0.0,0.0,0.0,0.0,0.0,0
8.0,-11.0,-12.0,-13.0,4.0,-6.0,-5.0,1.0,0.0,0.0,0.0,0.0,0.0,0.0,0.0,0.0,0
7.0,-22.0,-17.0,-18.0,1.0,-2.0,-12.0,0.0,0.0,0.0,0.0,0.0,0.0,0.0,0.0,0.0,0
-7.0,-25.0,-20.0,-14.0,-8.0,-4.0,-19.0,-2.0,0.0,0.0,0.0,0.0,0.0,0.0,0.0,0.0,0
4.0,-26.0,-39.0,-14.0,-9.0,0.0,-24.0,-2.0,0.0,0.0,0.0,0.0,0.0,0.0,0.0,0.0,0
19.0,-24.0,-47.0,-11.0,-13.0,-2.0,-29.0,5.0,0.0,0.0,0.0,0.0,0.0,0.0,0.0,0.0,0
10.0,-19.0,-23.0,-7.0,-11.0,-1.0,-18.0,4.0,0.0,0.0,0.0,0.0,0.0,0.0,0.0,0.0,0
3.0,-13.0,-7.0,-5.0,-12.0,-4.0,-11.0,2.0,0.0,0.0,0.0,0.0,0.0,0.0,0.0,0.0,0
10.0,-12.0,-10.0,0.0,-13.0,-13.0,-19.0,10.0,0.0,0.0,0.0,0.0,0.0,0.0,0.0,0.0,0
7.0,-12.0,-4.0,5.0,-6.0,-2.0,-20.0,7.0,0.0,0.0,0.0,0.0,0.0,0.0,0.0,0.0,0
9.0,3.0,13.0,14.0,1.0,2.0,-1.0,5.0,0.0,0.0,0.0,0.0,0.0,0.0,0.0,0.0,0
7.0,4.0,0.0,2.0,8.0,1.0,2.0,5.0,0.0,0.0,0.0,0.0,0.0,0.0,0.0,0.0,0
-11.0,6.0,-5.0,-1.0,5.0,1.0,8.0,-7.0,0.0,0.0,0.0,0.0,0.0,0.0,0.0,0.0,0
-19.0,11.0,9.0,-3.0,3.0,4.0,15.0,-10.0,0.0,0.0,0.0,0.0,0.0,0.0,0.0,0.0,0
-18.0,12.0,16.0,4.0,4.0,1.0,15.0,-4.0,0.0,0.0,0.0,0.0,0.0,0.0,0.0,0.0,0
-22.0,24.0,35.0,12.0,11.0,5.0,25.0,-11.0,0.0,0.0,0.0,0.0,0.0,0.0,0.0,0.0,0
-16.0,30.0,42.0,11.0,6.0,-1.0,21.0,-14.0,0.0,0.0,0.0,0.0,0.0,0.0,0.0,0.0,0
-10.0,18.0,23.0,6.0,-8.0,-8.0,9.0,-16.0,0.0,0.0,0.0,0.0,0.0,0.0,0.0,0.0,0
-28.0,-5.0,6.0,1.0,-8.0,-12.0,1.0,-8.0,0.0,0.0,0.0,0.0,0.0,0.0,0.0,0.0,0
-32.0,-19.0,-3.0,-6.0,-4.0,-4.0,-6.0,-9.0,0.0,0.0,0.0,0.0,0.0,0.0,0.0,0.0,0
-22.0,-19.0,-6.0,-7.0,-5.0,-7.0,-1.0,-7.0,0.0,0.0,0.0,0.0,0.0,0.0,0.0,0.0,0
-4.0,-27.0,-23.0,-5.0,-1.0,-3.0,-4.0,-7.0,0.0,0.0,0.0,0.0,0.0,0.0,0.0,0.0,0
19.0,-35.0,-30.0,-18.0,-3.0,-4.0,-6.0,-4.0,0.0,0.0,0.0,0.0,0.0,0.0,0.0,0.0,0
30.0,-13.0,-24.0,-18.0,-11.0,-1.0,-12.0,-2.0,0.0,0.0,0.0,0.0,0.0,0.0,0.0,0.0,0
53.0,29.0,-28.0,-23.0,-12.0,-4.0,-19.0,4.0,0.0,0.0,0.0,0.0,0.0,0.0,0.0,0.0,0
67.0,22.0,-23.0,-18.0,-9.0,-10.0,-25.0,6.0,0.0,0.0,0.0,0.0,0.0,0.0,0.0,0.0,0
20.0,-32.0,-13.0,-8.0,-6.0,-5.0,-23.0,5.0,0.0,0.0,0.0,0.0,0.0,0.0,0.0,0.0,0
-25.0,-36.0,5.0,6.0,-4.0,3.0,-12.0,11.0,0.0,0.0,0.0,0.0,0.0,0.0,0.0,0.0,0
-46.0,-17.0,13.0,19.0,6.0,4.0,-8.0,23.0,0.0,0.0,0.0,0.0,0.0,0.0,0.0,0.0,0
-53.0,-6.0,-6.0,14.0,-2.0,-2.0,-5.0,8.0,0.0,0.0,0.0,0.0,0.0,0.0,0.0,0.0,0
-37.0,20.0,-2.0,8.0,-1.0,0.0,-9.0,1.0,0.0,0.0,0.0,0.0,0.0,0.0,0.0,0.0,0
0.0,37.0,4.0,7.0,-7.0,-1.0,-10.0,-5.0,0.0,0.0,0.0,0.0,0.0,0.0,0.0,0.0,0
30.0,19.0,9.0,0.0,0.0,0.0,7.0,-8.0,0.0,0.0,0.0,0.0,0.0,0.0,0.0,0.0,0
31.0,-13.0,10.0,0.0,-1.0,2.0,11.0,-18.0,0.0,0.0,0.0,0.0,0.0,0.0,0.0,0.0,0
20.0,-26.0,6.0,3.0,-2.0,5.0,15.0,-17.0,0.0,0.0,0.0,0.0,0.0,0.0,0.0,0.0,0
-7.0,-17.0,8.0,-9.0,2.0,-5.0,24.0,-21.0,0.0,0.0,0.0,0.0,0.0,0.0,0.0,0.0,0
-24.0,-9.0,6.0,-11.0,8.0,-10.0,21.0,-15.0,0.0,0.0,0.0,0.0,0.0,0.0,0.0,0.0,0
-21.0,2.0,-2.0,-14.0,7.0,-3.0,10.0,-3.0,0.0,0.0,0.0,0.0,0.0,0.0,0.0,0.0,0
-23.0,15.0,-6.0,-10.0,-1.0,-5.0,14.0,-4.0,0.0,0.0,0.0,0.0,0.0,0.0,0.0,0.0,0
-23.0,10.0,5.0,-4.0,-9.0,-11.0,12.0,-7.0,0.0,0.0,0.0,0.0,0.0,0.0,0.0,0.0,0
-19.0,8.0,8.0,-3.0,-21.0,-3.0,-2.0,-3.0,0.0,0.0,0.0,0.0,0.0,0.0,0.0,0.0,0
-7.0,4.0,5.0,3.0,-12.0,1.0,-11.0,6.0,0.0,0.0,0.0,0.0,0.0,0.0,0.0,0.0,0
7.0,2.0,14.0,8.0,4.0,1.0,-9.0,0.0,0.0,0.0,0.0,0.0,0.0,0.0,0.0,0.0,0
8.0,0.0,-5.0,0.0,0.0,-4.0,-11.0,-4.0,0.0,0.0,0.0,0.0,0.0,0.0,0.0,0.0,0
13.0,-14.0,-29.0,-18.0,-5.0,-6.0,-18.0,-8.0,0.0,0.0,0.0,0.0,0.0,0.0,0.0,0.0,0
22.0,-24.0,-45.0,-26.0,-8.0,-9.0,-29.0,3.0,0.0,0.0,0.0,0.0,0.0,0.0,0.0,0.0,0
16.0,-16.0,-34.0,-20.0,-4.0,-1.0,-20.0,11.0,0.0,0.0,0.0,0.0,0.0,0.0,0.0,0.0,0
11.0,-12.0,-16.0,-2.0,-3.0,-5.0,-16.0,6.0,0.0,0.0,0.0,0.0,0.0,0.0,0.0,0.0,0
16.0,-14.0,-17.0,5.0,-7.0,-6.0,-22.0,5.0,0.0,0.0,0.0,0.0,0.0,0.0,0.0,0.0,0
14.0,-11.0,-6.0,13.0,2.0,-4.0,-17.0,6.0,0.0,0.0,0.0,0.0,0.0,0.0,0.0,0.0,0
1.0,-6.0,10.0,14.0,5.0,4.0,-7.0,4.0,0.0,0.0,0.0,0.0,0.0,0.0,0.0,0.0,0
-5.0,7.0,4.0,11.0,8.0,10.0,-2.0,1.0,0.0,0.0,0.0,0.0,0.0,0.0,0.0,0.0,0
-10.0,15.0,11.0,6.0,5.0,10.0,13.0,-5.0,0.0,0.0,0.0,0.0,0.0,0.0,0.0,0.0,0
-14.0,7.0,20.0,3.0,-5.0,4.0,12.0,-9.0,0.0,0.0,0.0,0.0,0.0,0.0,0.0,0.0,0
-28.0,-2.0,18.0,-4.0,-2.0,0.0,8.0,-8.0,0.0,0.0,0.0,0.0,0.0,0.0,0.0,0.0,0
-35.0,5.0,28.0,-4.0,-6.0,-2.0,24.0,-14.0,0.0,0.0,0.0,0.0,0.0,0.0,0.0,0.0,0
-24.0,12.0,22.0,-1.0,-1.0,-6.0,27.0,-14.0,0.0,0.0,0.0,0.0,0.0,0.0,0.0,0.0,0
-7.0,4.0,-11.0,-19.0,-11.0,-8.0,12.0,-6.0,0.0,0.0,0.0,0.0,0.0,0.0,0.0,0.0,0
-15.0,-3.0,-32.0,-26.0,-7.0,-11.0,9.0,-16.0,0.0,0.0,0.0,0.0,0.0,0.0,0.0,0.0,0
-11.0,-4.0,-24.0,-16.0,0.0,-13.0,5.0,-12.0,0.0,0.0,0.0,0.0,0.0,0.0,0.0,0.0,0
-3.0,-5.0,-10.0,-7.0,7.0,-10.0,4.0,-8.0,0.0,0.0,0.0,0.0,0.0,0.0,0.0,0.0,0
6.0,-4.0,-5.0,8.0,5.0,1.0,-12.0,-3.0,0.0,0.0,0.0,0.0,0.0,0.0,0.0,0.0,0
9.0,-2.0,16.0,20.0,-3.0,6.0,-11.0,4.0,0.0,0.0,0.0,0.0,0.0,0.0,0.0,0.0,0
13.0,0.0,26.0,9.0,-6.0,9.0,-9.0,4.0,0.0,0.0,0.0,0.0,0.0,0.0,0.0,0.0,0
13.0,1.0,16.0,2.0,-14.0,2.0,-13.0,7.0,0.0,0.0,0.0,0.0,0.0,0.0,0.0,0.0,0
21.0,-9.0,-2.0,-5.0,-6.0,-4.0,-30.0,12.0,0.0,0.0,0.0,0.0,0.0,0.0,0.0,0.0,0
17.0,-11.0,-13.0,-7.0,-2.0,-4.0,-24.0,13.0,0.0,0.0,0.0,0.0,0.0,0.0,0.0,0.0,0
6.0,-5.0,-17.0,-5.0,-4.0,-1.0,-11.0,-3.0,0.0,0.0,0.0,0.0,0.0,0.0,0.0,0.0,0
11.0,-2.0,-31.0,-12.0,-1.0,-1.0,-19.0,-4.0,0.0,0.0,0.0,0.0,0.0,0.0,0.0,0.0,0
15.0,0.0,-37.0,-20.0,0.0,-7.0,-18.0,3.0,0.0,0.0,0.0,0.0,0.0,0.0,0.0,0.0,0
11.0,-1.0,-37.0,-20.0,4.0,-6.0,-8.0,3.0,0.0,0.0,0.0,0.0,0.0,0.0,0.0,0.0,0
9.0,-16.0,-24.0,-5.0,2.0,-6.0,-5.0,-5.0,0.0,0.0,0.0,0.0,0.0,0.0,0.0,0.0,0
-12.0,-19.0,-10.0,13.0,0.0,5.0,11.0,-4.0,0.0,0.0,0.0,0.0,0.0,0.0,0.0,0.0,0
-41.0,-21.0,4.0,21.0,-8.0,5.0,17.0,-8.0,0.0,0.0,0.0,0.0,0.0,0.0,0.0,0.0,0
-52.0,-21.0,18.0,15.0,-1.0,-3.0,12.0,-10.0,0.0,0.0,0.0,0.0,0.0,0.0,0.0,0.0,0
-50.0,-14.0,39.0,18.0,10.0,-1.0,29.0,-14.0,0.0,0.0,0.0,0.0,0.0,0.0,0.0,0.0,0
-19.0,1.0,36.0,8.0,4.0,-4.0,26.0,-7.0,0.0,0.0,0.0,0.0,0.0,0.0,0.0,0.0,0
6.0,9.0,16.0,-1.0,-1.0,0.0,10.0,-4.0,0.0,0.0,0.0,0.0,0.0,0.0,0.0,0.0,0
10.0,11.0,9.0,-7.0,-4.0,-3.0,3.0,-6.0,0.0,0.0,0.0,0.0,0.0,0.0,0.0,0.0,0
12.0,59.0,22.0,-10.0,-10.0,-2.0,2.0,-6.0,0.0,0.0,0.0,0.0,0.0,0.0,0.0,0.0,0
13.0,81.0,28.0,-4.0,-11.0,-6.0,-1.0,-7.0,0.0,0.0,0.0,0.0,0.0,0.0,0.0,0.0,0
11.0,58.0,10.0,-8.0,-5.0,-13.0,-4.0,-6.0,0.0,0.0,0.0,0.0,0.0,0.0,0.0,0.0,0
5.0,17.0,-6.0,-10.0,-5.0,-1.0,-15.0,0.0,0.0,0.0,0.0,0.0,0.0,0.0,0.0,0.0,0
-3.0,-35.0,-27.0,-25.0,-7.0,-3.0,-18.0,-8.0,0.0,0.0,0.0,0.0,0.0,0.0,0.0,0.0,0
-11.0,-70.0,-38.0,-29.0,-10.0,-8.0,-16.0,-4.0,0.0,0.0,0.0,0.0,0.0,0.0,0.0,0.0,0
-4.0,-86.0,-47.0,-22.0,-7.0,-7.0,-25.0,4.0,0.0,0.0,0.0,0.0,0.0,0.0,0.0,0.0,0
-6.0,-70.0,-39.0,-8.0,4.0,-3.0,-18.0,13.0,0.0,0.0,0.0,0.0,0.0,0.0,0.0,0.0,0
-2.0,-32.0,-32.0,3.0,7.0,3.0,-18.0,7.0,0.0,0.0,0.0,0.0,0.0,0.0,0.0,0.0,0
19.0,-7.0,-43.0,2.0,2.0,3.0,-17.0,5.0,0.0,0.0,0.0,0.0,0.0,0.0,0.0,0.0,0
28.0,10.0,-36.0,9.0,-3.0,4.0,-9.0,8.0,0.0,0.0,0.0,0.0,0.0,0.0,0.0,0.0,0
16.0,20.0,6.0,12.0,1.0,2.0,-3.0,5.0,0.0,0.0,0.0,0.0,0.0,0.0,0.0,0.0,0
0.0,29.0,28.0,16.0,2.0,-3.0,-9.0,3.0,0.0,0.0,0.0,0.0,0.0,0.0,0.0,0.0,0
-8.0,35.0,43.0,15.0,0.0,-1.0,2.0,-5.0,0.0,0.0,0.0,0.0,0.0,0.0,0.0,0.0,0
-13.0,24.0,46.0,10.0,-2.0,2.0,10.0,-13.0,0.0,0.0,0.0,0.0,0.0,0.0,0.0,0.0,0
-17.0,2.0,36.0,6.0,2.0,-8.0,11.0,-16.0,0.0,0.0,0.0,0.0,0.0,0.0,0.0,0.0,0
-32.0,-12.0,24.0,-5.0,-3.0,-3.0,30.0,-14.0,0.0,0.0,0.0,0.0,0.0,0.0,0.0,0.0,0
-28.0,-10.0,6.0,-6.0,0.0,-3.0,26.0,-13.0,0.0,0.0,0.0,0.0,0.0,0.0,0.0,0.0,0
-12.0,4.0,-6.0,-9.0,8.0,3.0,15.0,-4.0,0.0,0.0,0.0,0.0,0.0,0.0,0.0,0.0,0
-15.0,6.0,0.0,-15.0,2.0,4.0,14.0,-6.0,0.0,0.0,0.0,0.0,0.0,0.0,0.0,0.0,0
-17.0,-5.0,-5.0,-13.0,-5.0,-4.0,1.0,-4.0,0.0,0.0,0.0,0.0,0.0,0.0,0.0,0.0,0
-4.0,-7.0,-14.0,-9.0,-10.0,-8.0,-10.0,0.0,0.0,0.0,0.0,0.0,0.0,0.0,0.0,0.0,0
5.0,-7.0,-15.0,-9.0,-8.0,-10.0,-7.0,-3.0,0.0,0.0,0.0,0.0,0.0,0.0,0.0,0.0,0
11.0,1.0,-16.0,-9.0,-6.0,-5.0,-9.0,-6.0,0.0,0.0,0.0,0.0,0.0,0.0,0.0,0.0,0
5.0,6.0,-10.0,2.0,3.0,-5.0,-13.0,-3.0,0.0,0.0,0.0,0.0,0.0,0.0,0.0,0.0,0
6.0,-5.0,-9.0,-3.0,-5.0,-10.0,-19.0,6.0,0.0,0.0,0.0,0.0,0.0,0.0,0.0,0.0,0
25.0,-15.0,-16.0,-8.0,-9.0,-6.0,-24.0,5.0,0.0,0.0,0.0,0.0,0.0,0.0,0.0,0.0,0
22.0,-12.0,-18.0,0.0,-1.0,-1.0,-24.0,3.0,0.0,0.0,0.0,0.0,0.0,0.0,0.0,0.0,0
10.0,-4.0,-10.0,13.0,5.0,5.0,-12.0,2.0,0.0,0.0,0.0,0.0,0.0,0.0,0.0,0.0,0
14.0,-2.0,-10.0,6.0,2.0,6.0,-17.0,2.0,0.0,0.0,0.0,0.0,0.0,0.0,0.0,0.0,0
4.0,-14.0,-5.0,4.0,-2.0,7.0,-15.0,6.0,0.0,0.0,0.0,0.0,0.0,0.0,0.0,0.0,0
0.0,-9.0,-3.0,0.0,-5.0,-1.0,-10.0,4.0,0.0,0.0,0.0,0.0,0.0,0.0,0.0,0.0,0
-2.0,-9.0,-7.0,1.0,-7.0,-2.0,-5.0,-3.0,0.0,0.0,0.0,0.0,0.0,0.0,0.0,0.0,0
-12.0,0.0,2.0,-2.0,-5.0,3.0,9.0,-2.0,0.0,0.0,0.0,0.0,0.0,0.0,0.0,0.0,0
-16.0,7.0,9.0,-13.0,0.0,-1.0,14.0,-5.0,0.0,0.0,0.0,0.0,0.0,0.0,0.0,0.0,0
-21.0,5.0,10.0,-10.0,-2.0,-10.0,13.0,-11.0,0.0,0.0,0.0,0.0,0.0,0.0,0.0,0.0,0
-33.0,0.0,15.0,-7.0,-4.0,-13.0,23.0,-11.0,0.0,0.0,0.0,0.0,0.0,0.0,0.0,0.0,0
-28.0,-1.0,10.0,-9.0,1.0,-6.0,18.0,-12.0,0.0,0.0,0.0,0.0,0.0,0.0,0.0,0.0,0
-17.0,4.0,-1.0,-10.0,-1.0,-2.0,9.0,-11.0,0.0,0.0,0.0,0.0,0.0,0.0,0.0,0.0,0
-10.0,5.0,3.0,1.0,-5.0,-3.0,11.0,-17.0,0.0,0.0,0.0,0.0,0.0,0.0,0.0,0.0,0
-12.0,8.0,2.0,8.0,1.0,-5.0,8.0,-11.0,0.0,0.0,0.0,0.0,0.0,0.0,0.0,0.0,0
-4.0,6.0,8.0,11.0,6.0,-5.0,1.0,-4.0,0.0,0.0,0.0,0.0,0.0,0.0,0.0,0.0,0
8.0,-6.0,2.0,4.0,-1.0,0.0,-7.0,3.0,0.0,0.0,0.0,0.0,0.0,0.0,0.0,0.0,0
18.0,-1.0,-3.0,-4.0,-4.0,6.0,-12.0,6.0,0.0,0.0,0.0,0.0,0.0,0.0,0.0,0.0,0
13.0,4.0,-2.0,-10.0,-5.0,3.0,-10.0,-3.0,0.0,0.0,0.0,0.0,0.0,0.0,0.0,0.0,0
11.0,-7.0,-8.0,-6.0,-3.0,-5.0,-13.0,1.0,0.0,0.0,0.0,0.0,0.0,0.0,0.0,0.0,0
17.0,-17.0,-21.0,-11.0,-3.0,-11.0,-26.0,7.0,0.0,0.0,0.0,0.0,0.0,0.0,0.0,0.0,0
10.0,-19.0,-16.0,-7.0,1.0,-6.0,-22.0,5.0,0.0,0.0,0.0,0.0,0.0,0.0,0.0,0.0,0
9.0,-9.0,-8.0,7.0,-3.0,3.0,-14.0,0.0,0.0,0.0,0.0,0.0,0.0,0.0,0.0,0.0,0
15.0,-2.0,-17.0,10.0,-4.0,0.0,-20.0,4.0,0.0,0.0,0.0,0.0,0.0,0.0,0.0,0.0,0
11.0,-8.0,-21.0,6.0,-6.0,-9.0,-26.0,7.0,0.0,0.0,0.0,0.0,0.0,0.0,0.0,0.0,0
1.0,-15.0,-22.0,2.0,-7.0,-3.0,-11.0,0.0,0.0,0.0,0.0,0.0,0.0,0.0,0.0,0.0,0
-4.0,-17.0,-21.0,-10.0,-4.0,-1.0,-2.0,-4.0,0.0,0.0,0.0,0.0,0.0,0.0,0.0,0.0,0
-20.0,-4.0,-1.0,-4.0,-1.0,6.0,9.0,-3.0,0.0,0.0,0.0,0.0,0.0,0.0,0.0,0.0,0
-27.0,7.0,23.0,-2.0,-3.0,7.0,18.0,0.0,0.0,0.0,0.0,0.0,0.0,0.0,0.0,0.0,0
-19.0,0.0,25.0,-4.0,-5.0,-5.0,18.0,-6.0,0.0,0.0,0.0,0.0,0.0,0.0,0.0,0.0,0
