CH1,CH2,CH3,CH4,CH5,CH6,CH7,CH8,CH9,CH10,CH11,CH12,CH13,CH14,CH15,CH16,label
-5411.0,-8682.0,-3142.0,-3740.0,1691.0,3271.0,1886.0,815.0,0.0,0.0,0.0,0.0,0.0,0.0,0.0,0.0,0
-3718.0,-5774.0,-2095.0,-2490.0,1116.0,2135.0,1227.0,576.0,0.0,0.0,0.0,0.0,0.0,0.0,0.0,0.0,0
-2546.0,-3390.0,-1242.0,-1474.0,618.0,1182.0,704.0,429.0,0.0,0.0,0.0,0.0,0.0,0.0,0.0,0.0,0
-1697.0,-1462.0,-551.0,-631.0,216.0,418.0,263.0,288.0,0.0,0.0,0.0,0.0,0.0,0.0,0.0,0.0,0
-769.0,74.0,2.0,43.0,-77.0,-126.0,-72.0,110.0,0.0,0.0,0.0,0.0,0.0,0.0,0.0,0.0,0
142.0,1248.0,423.0,557.0,-293.0,-530.0,-315.0,-51.0,0.0,0.0,0.0,0.0,0.0,0.0,0.0,0.0,0
935.0,2111.0,745.0,930.0,-446.0,-816.0,-453.0,-179.0,0.0,0.0,0.0,0.0,0.0,0.0,0.0,0.0,0
1602.0,2722.0,959.0,1178.0,-553.0,-1032.0,-576.0,-290.0,0.0,0.0,0.0,0.0,0.0,0.0,0.0,0.0,0
2096.0,3101.0,1100.0,1341.0,-627.0,-1161.0,-675.0,-381.0,0.0,0.0,0.0,0.0,0.0,0.0,0.0,0.0,0
2457.0,3300.0,1180.0,1421.0,-656.0,-1221.0,-727.0,-445.0,0.0,0.0,0.0,0.0,0.0,0.0,0.0,0.0,0
2712.0,3363.0,1217.0,1440.0,-649.0,-1229.0,-746.0,-490.0,0.0,0.0,0.0,0.0,0.0,0.0,0.0,0.0,0
2868.0,3317.0,1208.0,1406.0,-629.0,-1199.0,-737.0,-515.0,0.0,0.0,0.0,0.0,0.0,0.0,0.0,0.0,0
2907.0,3161.0,1143.0,1341.0,-601.0,-1139.0,-708.0,-513.0,0.0,0.0,0.0,0.0,0.0,0.0,0.0,0.0,0
2835.0,2935.0,1064.0,1244.0,-555.0,-1066.0,-671.0,-497.0,0.0,0.0,0.0,0.0,0.0,0.0,0.0,0.0,0
2699.0,2679.0,973.0,1120.0,-502.0,-970.0,-620.0,-464.0,0.0,0.0,0.0,0.0,0.0,0.0,0.0,0.0,0
2477.0,2404.0,877.0,985.0,-446.0,-865.0,-564.0,-422.0,0.0,0.0,0.0,0.0,0.0,0.0,0.0,0.0,0
2190.0,2103.0,768.0,856.0,-396.0,-761.0,-494.0,-372.0,0.0,0.0,0.0,0.0,0.0,0.0,0.0,0.0,0
1849.0,1770.0,639.0,706.0,-335.0,-650.0,-420.0,-306.0,0.0,0.0,0.0,0.0,0.0,0.0,0.0,0.0,0
1436.0,1420.0,509.0,553.0,-279.0,-538.0,-349.0,-224.0,0.0,0.0,0.0,0.0,0.0,0.0,0.0,0.0,0
1004.0,1064.0,380.0,399.0,-232.0,-426.0,-278.0,-154.0,0.0,0.0,0.0,0.0,0.0,0.0,0.0,0.0,0
578.0,710.0,224.0,228.0,-172.0,-306.0,-205.0,-94.0,0.0,0.0,0.0,0.0,0.0,0.0,0.0,0.0,0
134.0,347.0,76.0,70.0,-115.0,-188.0,-123.0,-19.0,0.0,0.0,0.0,0.0,0.0,0.0,0.0,0.0,0
-278.0,-39.0,-65.0,-86.0,-59.0,-68.0,-42.0,43.0,0.0,0.0,0.0,0.0,0.0,0.0,0.0,0.0,0
-686.0,-425.0,-198.0,-226.0,11.0,63.0,37.0,106.0,0.0,0.0,0.0,0.0,0.0,0.0,0.0,0.0,0
-1075.0,-788.0,-331.0,-365.0,78.0,177.0,110.0,167.0,0.0,0.0,0.0,0.0,0.0,0.0,0.0,0.0,0
-1399.0,-1117.0,-445.0,-502.0,139.0,299.0,183.0,208.0,0.0,0.0,0.0,0.0,0.0,0.0,0.0,0.0,0
-1662.0,-1401.0,-541.0,-613.0,203.0,414.0,243.0,244.0,0.0,0.0,0.0,0.0,0.0,0.0,0.0,0.0,0
-1875.0,-1671.0,-639.0,-711.0,256.0,514.0,302.0,270.0,0.0,0.0,0.0,0.0,0.0,0.0,0.0,0.0,0
-2031.0,-1914.0,-722.0,-799.0,288.0,586.0,353.0,286.0,0.0,0.0,0.0,0.0,0.0,0.0,0.0,0.0,0
-2087.0,-2072.0,-771.0,-855.0,326.0,648.0,393.0,286.0,0.0,0.0,0.0,0.0,0.0,0.0,0.0,0.0,0
-2052.0,-2144.0,-797.0,-881.0,352.0,701.0,411.0,269.0,0.0,0.0,0.0,0.0,0.0,0.0,0.0,0.0,0
-1947.0,-2159.0,-802.0,-893.0,364.0,716.0,415.0,239.0,0.0,0.0,0.0,0.0,0.0,0.0,0.0,0.0,0
-1810.0,-2117.0,-785.0,-889.0,361.0,714.0,406.0,210.0,0.0,0.0,0.0,0.0,0.0,0.0,0.0,0.0,0
-1625.0,-2028.0,-747.0,-861.0,348.0,685.0,392.0,189.0,0.0,0.0,0.0,0.0,0.0,0.0,0.0,0.0,0
-1419.0,-1902.0,-701.0,-810.0,311.0,633.0,364.0,158.0,0.0,0.0,0.0,0.0,0.0,0.0,0.0,0.0,0
-1228.0,-1714.0,-641.0,-743.0,272.0,573.0,327.0,128.0,0.0,0.0,0.0,0.0,0.0,0.0,0.0,0.0,0
-1042.0,-1509.0,-570.0,-667.0,228.0,498.0,289.0,103.0,0.0,0.0,0.0,0.0,0.0,0.0,0.0,0.0,0
-851.0,-1296.0,-495.0,-577.0,180.0,421.0,243.0,79.0,0.0,0.0,0.0,0.0,0.0,0.0,0.0,0.0,0
-719.0,-1080.0,-406.0,-477.0,143.0,341.0,201.0,59.0,0.0,0.0,0.0,0.0,0.0,0.0,0.0,0.0,0
-608.0,-852.0,-331.0,-386.0,114.0,262.0,164.0,43.0,0.0,0.0,0.0,0.0,0.0,0.0,0.0,0.0,0
-483.0,-643.0,-256.0,-302.0,71.0,188.0,114.0,25.0,0.0,0.0,0.0,0.0,0.0,0.0,0.0,0.0,0
-385.0,-474.0,-185.0,-224.0,35.0,127.0,78.0,13.0,0.0,0.0,0.0,0.0,0.0,0.0,0.0,0.0,0
-299.0,-321.0,-125.0,-155.0,7.0,73.0,49.0,4.0,0.0,0.0,0.0,0.0,0.0,0.0,0.0,0.0,0
-248.0,-217.0,-83.0,-97.0,-13.0,21.0,20.0,-3.0,0.0,0.0,0.0,0.0,0.0,0.0,0.0,0.0,0
-236.0,-135.0,-52.0,-42.0,-23.0,4.0,8.0,-4.0,0.0,0.0,0.0,0.0,0.0,0.0,0.0,0.0,0
-203.0,-63.0,-23.0,1.0,-24.0,-12.0,-2.0,-7.0,0.0,0.0,0.0,0.0,0.0,0.0,0.0,0.0,0
-167.0,-40.0,-11.0,31.0,-22.0,-21.0,-22.0,-14.0,0.0,0.0,0.0,0.0,0.0,0.0,0.0,0.0,0
-114.0,-32.0,-1.0,52.0,-17.0,-34.0,-30.0,-23.0,0.0,0.0,0.0,0.0,0.0,0.0,0.0,0.0,0
-44.0,-5.0,19.0,75.0,-14.0,-37.0,-44.0,-34.0,0.0,0.0,0.0,0.0,0.0,0.0,0.0,0.0,0
65.0,64.0,46.0,92.0,-22.0,-50.0,-54.0,-48.0,0.0,0.0,0.0,0.0,0.0,0.0,0.0,0.0,0
200.0,138.0,61.0,101.0,-33.0,-65.0,-68.0,-72.0,0.0,0.0,0.0,0.0,0.0,0.0,0.0,0.0,0
343.0,190.0,86.0,119.0,-42.0,-83.0,-81.0,-103.0,0.0,0.0,0.0,0.0,0.0,0.0,0.0,0.0,0
464.0,251.0,100.0,138.0,-56.0,-112.0,-97.0,-128.0,0.0,0.0,0.0,0.0,0.0,0.0,0.0,0.0,0
606.0,337.0,118.0,159.0,-68.0,-128.0,-118.0,-155.0,0.0,0.0,0.0,0.0,0.0,0.0,0.0,0.0,0
766.0,459.0,156.0,195.0,-79.0,-152.0,-130.0,-170.0,0.0,0.0,0.0,0.0,0.0,0.0,0.0,0.0,0
879.0,577.0,194.0,233.0,-97.0,-190.0,-150.0,-167.0,0.0,0.0,0.0,0.0,0.0,0.0,0.0,0.0,0
939.0,677.0,225.0,251.0,-136.0,-240.0,-180.0,-185.0,0.0,0.0,0.0,0.0,0.0,0.0,0.0,0.0,0
970.0,751.0,242.0,266.0,-165.0,-280.0,-195.0,-194.0,0.0,0.0,0.0,0.0,0.0,0.0,0.0,0.0,0
938.0,795.0,254.0,293.0,-178.0,-306.0,-200.0,-181.0,0.0,0.0,0.0,0.0,0.0,0.0,0.0,0.0,0
871.0,812.0,270.0,307.0,-186.0,-330.0,-215.0,-164.0,0.0,0.0,0.0,0.0,0.0,0.0,0.0,0.0,0
766.0,810.0,262.0,305.0,-202.0,-350.0,-223.0,-148.0,0.0,0.0,0.0,0.0,0.0,0.0,0.0,0.0,0
643.0,775.0,242.0,289.0,-209.0,-354.0,-222.0,-131.0,0.0,0.0,0.0,0.0,0.0,0.0,0.0,0.0,0
544.0,718.0,213.0,268.0,-200.0,-351.0,-209.0,-116.0,0.0,0.0,0.0,0.0,0.0,0.0,0.0,0.0,0
422.0,617.0,169.0,216.0,-192.0,-323.0,-197.0,-93.0,0.0,0.0,0.0,0.0,0.0,0.0,0.0,0.0,0
267.0,493.0,122.0,157.0,-179.0,-289.0,-172.0,-70.0,0.0,0.0,0.0,0.0,0.0,0.0,0.0,0.0,0
127.0,386.0,85.0,110.0,-153.0,-245.0,-149.0,-42.0,0.0,0.0,0.0,0.0,0.0,0.0,0.0,0.0,0
6.0,288.0,52.0,70.0,-121.0,-192.0,-123.0,-28.0,0.0,0.0,0.0,0.0,0.0,0.0,0.0,0.0,0
-85.0,178.0,26.0,24.0,-100.0,-143.0,-102.0,-26.0,0.0,0.0,0.0,0.0,0.0,0.0,0.0,0.0,0
-161.0,79.0,5.0,-2.0,-67.0,-96.0,-78.0,-15.0,0.0,0.0,0.0,0.0,0.0,0.0,0.0,0.0,0
-192.0,-8.0,-3.0,-8.0,-27.0,-31.0,-39.0,1.0,0.0,0.0,0.0,0.0,0.0,0.0,0.0,0.0,0
-163.0,-64.0,-7.0,-10.0,15.0,11.0,-10.0,-4.0,0.0,0.0,0.0,0.0,0.0,0.0,0.0,0.0,0
-127.0,-105.0,-21.0,-18.0,40.0,35.0,3.0,-6.0,0.0,0.0,0.0,0.0,0.0,0.0,0.0,0.0,0
-119.0,-156.0,-39.0,-37.0,43.0,53.0,4.0,-14.0,0.0,0.0,0.0,0.0,0.0,0.0,0.0,0.0,0
-34.0,-168.0,-44.0,-44.0,29.0,50.0,-2.0,-53.0,0.0,0.0,0.0,0.0,0.0,0.0,0.0,0.0,0
45.0,-155.0,-49.0,-55.0,18.0,37.0,-6.0,-65.0,0.0,0.0,0.0,0.0,0.0,0.0,0.0,0.0,0
66.0,-125.0,-48.0,-66.0,-8.0,19.0,-17.0,-61.0,0.0,0.0,0.0,0.0,0.0,0.0,0.0,0.0,0
101.0,-80.0,-50.0,-68.0,-24.0,-1.0,-26.0,-58.0,0.0,0.0,0.0,0.0,0.0,0.0,0.0,0.0,0
142.0,-42.0,-43.0,-67.0,-45.0,-17.0,-29.0,-57.0,0.0,0.0,0.0,0.0,0.0,0.0,0.0,0.0,0
112.0,-15.0,-46.0,-49.0,-70.0,-36.0,-42.0,-48.0,0.0,0.0,0.0,0.0,0.0,0.0,0.0,0.0,0
49.0,0.0,-57.0,-38.0,-84.0,-54.0,-44.0,-38.0,0.0,0.0,0.0,0.0,0.0,0.0,0.0,0.0,0
-14.0,3.0,-53.0,-39.0,-91.0,-66.0,-44.0,-32.0,0.0,0.0,0.0,0.0,0.0,0.0,0.0,0.0,0
-94.0,-2.0,-57.0,-48.0,-93.0,-69.0,-45.0,-27.0,0.0,0.0,0.0,0.0,0.0,0.0,0.0,0.0,0
-147.0,-16.0,-65.0,-54.0,-88.0,-64.0,-46.0,-19.0,0.0,0.0,0.0,0.0,0.0,0.0,0.0,0.0,0
-191.0,-57.0,-80.0,-60.0,-68.0,-56.0,-38.0,-7.0,0.0,0.0,0.0,0.0,0.0,0.0,0.0,0.0,0
-304.0,-114.0,-96.0,-69.0,-46.0,-35.0,-24.0,12.0,0.0,0.0,0.0,0.0,0.0,0.0,0.0,0.0,0
-384.0,-170.0,-101.0,-87.0,-30.0,-8.0,-4.0,31.0,0.0,0.0,0.0,0.0,0.0,0.0,0.0,0.0,0
-424.0,-215.0,-113.0,-114.0,-11.0,27.0,11.0,32.0,0.0,0.0,0.0,0.0,0.0,0.0,0.0,0.0,0
-448.0,-276.0,-139.0,-155.0,-9.0,37.0,17.0,33.0,0.0,0.0,0.0,0.0,0.0,0.0,0.0,0.0,0
-477.0,-334.0,-158.0,-191.0,-7.0,57.0,21.0,44.0,0.0,0.0,0.0,0.0,0.0,0.0,0.0,0.0,0
-463.0,-368.0,-173.0,-205.0,8.0,83.0,31.0,41.0,0.0,0.0,0.0,0.0,0.0,0.0,0.0,0.0,0
-398.0,-388.0,-193.0,-217.0,17.0,94.0,33.0,17.0,0.0,0.0,0.0,0.0,0.0,0.0,0.0,0.0,0
-308.0,-371.0,-175.0,-189.0,30.0,98.0,31.0,0.0,0.0,0.0,0.0,0.0,0.0,0.0,0.0,0.0,0
-216.0,-322.0,-132.0,-146.0,40.0,103.0,34.0,-21.0,0.0,0.0,0.0,0.0,0.0,0.0,0.0,0.0,0
-99.0,-264.0,-103.0,-111.0,41.0,93.0,28.0,-41.0,0.0,0.0,0.0,0.0,0.0,0.0,0.0,0.0,0
15.0,-210.0,-84.0,-76.0,34.0,77.0,14.0,-51.0,0.0,0.0,0.0,0.0,0.0,0.0,0.0,0.0,0
68.0,-161.0,-71.0,-43.0,33.0,56.0,5.0,-61.0,0.0,0.0,0.0,0.0,0.0,0.0,0.0,0.0,0
128.0,-77.0,-31.0,-10.0,16.0,20.0,-12.0,-71.0,0.0,0.0,0.0,0.0,0.0,0.0,0.0,0.0,0
209.0,26.0,8.0,31.0,-5.0,-13.0,-32.0,-76.0,0.0,0.0,0.0,0.0,0.0,0.0,0.0,0.0,0
208.0,98.0,42.0,78.0,-17.0,-36.0,-42.0,-67.0,0.0,0.0,0.0,0.0,0.0,0.0,0.0,0.0,0
173.0,135.0,61.0,110.0,-30.0,-53.0,-47.0,-54.0,0.0,0.0,0.0,0.0,0.0,0.0,0.0,0.0,0
139.0,156.0,68.0,127.0,-38.0,-65.0,-42.0,-51.0,0.0,0.0,0.0,0.0,0.0,0.0,0.0,0.0,0
107.0,178.0,77.0,109.0,-64.0,-84.0,-44.0,-40.0,0.0,0.0,0.0,0.0,0.0,0.0,0.0,0.0,0
80.0,180.0,72.0,90.0,-88.0,-107.0,-59.0,-35.0,0.0,0.0,0.0,0.0,0.0,0.0,0.0,0.0,0
25.0,149.0,41.0,62.0,-99.0,-111.0,-54.0,-31.0,0.0,0.0,0.0,0.0,0.0,0.0,0.0,0.0,0
-69.0,94.0,8.0,23.0,-100.0,-106.0,-56.0,-24.0,0.0,0.0,0.0,0.0,0.0,0.0,0.0,0.0,0
-148.0,30.0,-16.0,3.0,-82.0,-84.0,-46.0,-6.0,0.0,0.0,0.0,0.0,0.0,0.0,0.0,0.0,0
-188.0,-26.0,-25.0,-19.0,-67.0,-70.0,-36.0,-4.0,0.0,0.0,0.0,0.0,0.0,0.0,0.0,0.0,0
-208.0,-72.0,-59.0,-72.0,-71.0,-55.0,-39.0,-9.0,0.0,0.0,0.0,0.0,0.0,0.0,0.0,0.0,0
-238.0,-127.0,-112.0,-130.0,-84.0,-42.0,-40.0,-8.0,0.0,0.0,0.0,0.0,0.0,0.0,0.0,0.0,0
-245.0,-168.0,-140.0,-165.0,-62.0,-23.0,-25.0,-16.0,0.0,0.0,0.0,0.0,0.0,0.0,0.0,0.0,0
-203.0,-185.0,-153.0,-171.0,-38.0,-2.0,-18.0,-26.0,0.0,0.0,0.0,0.0,0.0,0.0,0.0,0.0,0
-133.0,-189.0,-162.0,-168.0,-31.0,5.0,-11.0,-29.0,0.0,0.0,0.0,0.0,0.0,0.0,0.0,0.0,0
-65.0,-171.0,-152.0,-159.0,-22.0,17.0,-12.0,-41.0,0.0,0.0,0.0,0.0,0.0,0.0,0.0,0.0,0
7.0,-140.0,-129.0,-137.0,-11.0,20.0,-16.0,-58.0,0.0,0.0,0.0,0.0,0.0,0.0,0.0,0.0,0
85.0,-87.0,-85.0,-76.0,3.0,11.0,-21.0,-76.0,0.0,0.0,0.0,0.0,0.0,0.0,0.0,0.0,0
149.0,-15.0,-24.0,3.0,15.0,-1.0,-33.0,-82.0,0.0,0.0,0.0,0.0,0.0,0.0,0.0,0.0,0
215.0,65.0,40.0,65.0,20.0,-6.0,-50.0,-84.0,0.0,0.0,0.0,0.0,0.0,0.0,0.0,0.0,0
249.0,109.0,81.0,110.0,16.0,-27.0,-56.0,-89.0,0.0,0.0,0.0,0.0,0.0,0.0,0.0,0.0,0
221.0,141.0,124.0,157.0,16.0,-47.0,-60.0,-74.0,0.0,0.0,0.0,0.0,0.0,0.0,0.0,0.0,0
188.0,166.0,154.0,188.0,13.0,-64.0,-69.0,-63.0,0.0,0.0,0.0,0.0,0.0,0.0,0.0,0.0,0
161.0,177.0,159.0,190.0,3.0,-77.0,-72.0,-51.0,0.0,0.0,0.0,0.0,0.0,0.0,0.0,0.0,0
122.0,177.0,158.0,179.0,-7.0,-87.0,-70.0,-44.0,0.0,0.0,0.0,0.0,0.0,0.0,0.0,0.0,0
45.0,159.0,123.0,138.0,-35.0,-84.0,-65.0,-45.0,0.0,0.0,0.0,0.0,0.0,0.0,0.0,0.0,0
-17.0,125.0,72.0,85.0,-44.0,-84.0,-61.0,-31.0,0.0,0.0,0.0,0.0,0.0,0.0,0.0,0.0,0
-74.0,81.0,20.0,21.0,-57.0,-74.0,-51.0,-23.0,0.0,0.0,0.0,0.0,0.0,0.0,0.0,0.0,0
-125.0,20.0,-27.0,-44.0,-76.0,-76.0,-50.0,-23.0,0.0,0.0,0.0,0.0,0.0,0.0,0.0,0.0,0
-187.0,-51.0,-71.0,-103.0,-89.0,-65.0,-46.0,-10.0,0.0,0.0,0.0,0.0,0.0,0.0,0.0,0.0,0
-238.0,-110.0,-107.0,-152.0,-95.0,-46.0,-31.0,0.0,0.0,0.0,0.0,0.0,0.0,0.0,0.0,0.0,0
-265.0,-164.0,-134.0,-187.0,-81.0,-30.0,-19.0,6.0,0.0,0.0,0.0,0.0,0.0,0.0,0.0,0.0,0
-260.0,-195.0,-144.0,-199.0,-82.0,-12.0,-11.0,0.0,0.0,0.0,0.0,0.0,0.0,0.0,0.0,0.0,0
-234.0,-219.0,-132.0,-198.0,-66.0,9.0,-1.0,-4.0,0.0,0.0,0.0,0.0,0.0,0.0,0.0,0.0,0
-186.0,-235.0,-144.0,-193.0,-51.0,21.0,-8.0,-16.0,0.0,0.0,0.0,0.0,0.0,0.0,0.0,0.0,0
-115.0,-223.0,-136.0,-177.0,-32.0,23.0,-3.0,-33.0,0.0,0.0,0.0,0.0,0.0,0.0,0.0,0.0,0
-30.0,-192.0,-121.0,-155.0,-29.0,17.0,0.0,-48.0,0.0,0.0,0.0,0.0,0.0,0.0,0.0,0.0,0
39.0,-158.0,-110.0,-148.0,-35.0,13.0,-10.0,-55.0,0.0,0.0,0.0,0.0,0.0,0.0,0.0,0.0,0
85.0,-101.0,-99.0,-136.0,-38.0,-3.0,-26.0,-63.0,0.0,0.0,0.0,0.0,0.0,0.0,0.0,0.0,0
114.0,-41.0,-87.0,-112.0,-43.0,-24.0,-39.0,-82.0,0.0,0.0,0.0,0.0,0.0,0.0,0.0,0.0,0
158.0,2.0,-67.0,-67.0,-37.0,-49.0,-48.0,-84.0,0.0,0.0,0.0,0.0,0.0,0.0,0.0,0.0,0
167.0,39.0,-41.0,-31.0,-43.0,-72.0,-53.0,-79.0,0.0,0.0,0.0,0.0,0.0,0.0,0.0,0.0,0
140.0,67.0,-27.0,-14.0,-53.0,-78.0,-55.0,-69.0,0.0,0.0,0.0,0.0,0.0,0.0,0.0,0.0,0
123.0,97.0,3.0,2.0,-63.0,-92.0,-55.0,-58.0,0.0,0.0,0.0,0.0,0.0,0.0,0.0,0.0,0
78.0,121.0,18.0,15.0,-71.0,-100.0,-56.0,-46.0,0.0,0.0,0.0,0.0,0.0,0.0,0.0,0.0,0
18.0,137.0,18.0,23.0,-71.0,-96.0,-53.0,-39.0,0.0,0.0,0.0,0.0,0.0,0.0,0.0,0.0,0
-25.0,143.0,17.0,13.0,-57.0,-87.0,-49.0,-30.0,0.0,0.0,0.0,0.0,0.0,0.0,0.0,0.0,0
-58.0,146.0,17.0,13.0,-45.0,-77.0,-41.0,-8.0,0.0,0.0,0.0,0.0,0.0,0.0,0.0,0.0,0
-102.0,110.0,18.0,15.0,-29.0,-60.0,-36.0,5.0,0.0,0.0,0.0,0.0,0.0,0.0,0.0,0.0,0
-156.0,28.0,3.0,5.0,-7.0,-47.0,-26.0,6.0,0.0,0.0,0.0,0.0,0.0,0.0,0.0,0.0,0
-191.0,-78.0,-29.0,-6.0,3.0,-15.0,-12.0,3.0,0.0,0.0,0.0,0.0,0.0,0.0,0.0,0.0,0
-244.0,-147.0,-34.0,-7.0,11.0,-1.0,2.0,13.0,0.0,0.0,0.0,0.0,0.0,0.0,0.0,0.0,0
-262.0,-172.0,-33.0,-10.0,34.0,22.0,8.0,12.0,0.0,0.0,0.0,0.0,0.0,0.0,0.0,0.0,0
-242.0,-196.0,-37.0,-21.0,46.0,37.0,8.0,3.0,0.0,0.0,0.0,0.0,0.0,0.0,0.0,0.0,0
-199.0,-204.0,-42.0,-25.0,42.0,46.0,9.0,-13.0,0.0,0.0,0.0,0.0,0.0,0.0,0.0,0.0,0
-136.0,-180.0,-35.0,-37.0,34.0,48.0,4.0,-28.0,0.0,0.0,0.0,0.0,0.0,0.0,0.0,0.0,0
-68.0,-150.0,-24.0,-38.0,28.0,48.0,2.0,-39.0,0.0,0.0,0.0,0.0,0.0,0.0,0.0,0.0,0
16.0,-108.0,-7.0,-31.0,15.0,38.0,-7.0,-48.0,0.0,0.0,0.0,0.0,0.0,0.0,0.0,0.0,0
84.0,-61.0,-6.0,-35.0,-3.0,20.0,-20.0,-58.0,0.0,0.0,0.0,0.0,0.0,0.0,0.0,0.0,0
133.0,-2.0,2.0,-34.0,-12.0,6.0,-29.0,-68.0,0.0,0.0,0.0,0.0,0.0,0.0,0.0,0.0,0
172.0,32.0,13.0,-12.0,-18.0,-9.0,-44.0,-80.0,0.0,0.0,0.0,0.0,0.0,0.0,0.0,0.0,0
148.0,51.0,2.0,2.0,-30.0,-33.0,-63.0,-72.0,0.0,0.0,0.0,0.0,0.0,0.0,0.0,0.0,0
113.0,81.0,9.0,28.0,-35.0,-48.0,-67.0,-68.0,0.0,0.0,0.0,0.0,0.0,0.0,0.0,0.0,0
102.0,110.0,31.0,55.0,-26.0,-56.0,-71.0,-69.0,0.0,0.0,0.0,0.0,0.0,0.0,0.0,0.0,0
83.0,121.0,30.0,63.0,-27.0,-66.0,-72.0,-67.0,0.0,0.0,0.0,0.0,0.0,0.0,0.0,0.0,0
41.0,95.0,16.0,57.0,-41.0,-70.0,-74.0,-58.0,0.0,0.0,0.0,0.0,0.0,0.0,0.0,0.0,0
-8.0,60.0,-12.0,35.0,-45.0,-65.0,-71.0,-47.0,0.0,0.0,0.0,0.0,0.0,0.0,0.0,0.0,0
-68.0,36.0,-21.0,15.0,-36.0,-62.0,-65.0,-38.0,0.0,0.0,0.0,0.0,0.0,0.0,0.0,0.0,0
-109.0,10.0,-31.0,1.0,-35.0,-55.0,-50.0,-24.0,0.0,0.0,0.0,0.0,0.0,0.0,0.0,0.0,0
-160.0,-28.0,-37.0,-2.0,-33.0,-36.0,-38.0,-13.0,0.0,0.0,0.0,0.0,0.0,0.0,0.0,0.0,0
-194.0,-76.0,-57.0,-36.0,-31.0,-20.0,-25.0,-11.0,0.0,0.0,0.0,0.0,0.0,0.0,0.0,0.0,0
-207.0,-121.0,-76.0,-65.0,-31.0,-5.0,-16.0,1.0,0.0,0.0,0.0,0.0,0.0,0.0,0.0,0.0,0
-193.0,-129.0,-84.0,-86.0,-27.0,5.0,-6.0,2.0,0.0,0.0,0.0,0.0,0.0,0.0,0.0,0.0,0
-148.0,-142.0,-103.0,-113.0,-43.0,8.0,-2.0,-6.0,0.0,0.0,0.0,0.0,0.0,0.0,0.0,0.0,0
-98.0,-156.0,-113.0,-134.0,-51.0,6.0,-3.0,-22.0,0.0,0.0,0.0,0.0,0.0,0.0,0.0,0.0,0
-82.0,-175.0,-120.0,-154.0,-48.0,3.0,-10.0,-37.0,0.0,0.0,0.0,0.0,0.0,0.0,0.0,0.0,0
-55.0,-170.0,-107.0,-156.0,-53.0,-6.0,-15.0,-51.0,0.0,0.0,0.0,0.0,0.0,0.0,0.0,0.0,0
36.0,-139.0,-96.0,-149.0,-65.0,-15.0,-23.0,-64.0,0.0,0.0,0.0,0.0,0.0,0.0,0.0,0.0,0
85.0,-105.0,-81.0,-126.0,-72.0,-24.0,-30.0,-71.0,0.0,0.0,0.0,0.0,0.0,0.0,0.0,0.0,0
110.0,-76.0,-62.0,-99.0,-60.0,-41.0,-33.0,-74.0,0.0,0.0,0.0,0.0,0.0,0.0,0.0,0.0,0
139.0,-34.0,-53.0,-82.0,-62.0,-52.0,-34.0,-72.0,0.0,0.0,0.0,0.0,0.0,0.0,0.0,0.0,0
114.0,17.0,-50.0,-57.0,-67.0,-61.0,-37.0,-61.0,0.0,0.0,0.0,0.0,0.0,0.0,0.0,0.0,0
63.0,62.0,-40.0,-39.0,-65.0,-72.0,-48.0,-63.0,0.0,0.0,0.0,0.0,0.0,0.0,0.0,0.0,0
68.0,95.0,-31.0,-19.0,-61.0,-89.0,-58.0,-62.0,0.0,0.0,0.0,0.0,0.0,0.0,0.0,0.0,0
65.0,105.0,-18.0,-5.0,-58.0,-98.0,-62.0,-52.0,0.0,0.0,0.0,0.0,0.0,0.0,0.0,0.0,0
32.0,96.0,-4.0,20.0,-53.0,-94.0,-61.0,-54.0,0.0,0.0,0.0,0.0,0.0,0.0,0.0,0.0,0
6.0,72.0,-4.0,24.0,-53.0,-95.0,-63.0,-51.0,0.0,0.0,0.0,0.0,0.0,0.0,0.0,0.0,0
-48.0,49.0,-4.0,12.0,-52.0,-79.0,-52.0,-36.0,0.0,0.0,0.0,0.0,0.0,0.0,0.0,0.0,0
-114.0,16.0,-12.0,6.0,-40.0,-51.0,-40.0,-13.0,0.0,0.0,0.0,0.0,0.0,0.0,0.0,0.0,0
-156.0,-25.0,-20.0,-4.0,-29.0,-29.0,-27.0,5.0,0.0,0.0,0.0,0.0,0.0,0.0,0.0,0.0,0
-175.0,-54.0,-19.0,-12.0,-19.0,-14.0,-32.0,-1.0,0.0,0.0,0.0,0.0,0.0,0.0,0.0,0.0,0
-179.0,-78.0,-25.0,-35.0,-11.0,-3.0,-25.0,-9.0,0.0,0.0,0.0,0.0,0.0,0.0,0.0,0.0,0
-166.0,-99.0,-35.0,-41.0,2.0,14.0,-16.0,-4.0,0.0,0.0,0.0,0.0,0.0,0.0,0.0,0.0,0
-149.0,-124.0,-43.0,-53.0,16.0,28.0,-1.0,-7.0,0.0,0.0,0.0,0.0,0.0,0.0,0.0,0.0,0
-115.0,-125.0,-51.0,-66.0,20.0,37.0,-1.0,-22.0,0.0,0.0,0.0,0.0,0.0,0.0,0.0,0.0,0
-61.0,-116.0,-47.0,-74.0,27.0,38.0,-7.0,-32.0,0.0,0.0,0.0,0.0,0.0,0.0,0.0,0.0,0
-10.0,-112.0,-50.0,-70.0,14.0,31.0,-12.0,-47.0,0.0,0.0,0.0,0.0,0.0,0.0,0.0,0.0,0
51.0,-89.0,-48.0,-70.0,-1.0,24.0,-13.0,-55.0,0.0,0.0,0.0,0.0,0.0,0.0,0.0,0.0,0
83.0,-64.0,-40.0,-57.0,-8.0,9.0,-27.0,-59.0,0.0,0.0,0.0,0.0,0.0,0.0,0.0,0.0,0
92.0,-36.0,-27.0,-33.0,-4.0,-10.0,-28.0,-61.0,0.0,0.0,0.0,0.0,0.0,0.0,0.0,0.0,0
95.0,-6.0,-11.0,-12.0,-13.0,-20.0,-38.0,-55.0,0.0,0.0,0.0,0.0,0.0,0.0,0.0,0.0,0
92.0,37.0,0.0,10.0,-37.0,-36.0,-44.0,-53.0,0.0,0.0,0.0,0.0,0.0,0.0,0.0,0.0,0
79.0,70.0,9.0,11.0,-46.0,-55.0,-50.0,-51.0,0.0,0.0,0.0,0.0,0.0,0.0,0.0,0.0,0
62.0,78.0,0.0,-4.0,-59.0,-66.0,-60.0,-54.0,0.0,0.0,0.0,0.0,0.0,0.0,0.0,0.0,0
38.0,77.0,-11.0,-10.0,-80.0,-76.0,-63.0,-54.0,0.0,0.0,0.0,0.0,0.0,0.0,0.0,0.0,0
21.0,71.0,-16.0,-19.0,-83.0,-81.0,-62.0,-52.0,0.0,0.0,0.0,0.0,0.0,0.0,0.0,0.0,0
-20.0,51.0,-24.0,-34.0,-86.0,-78.0,-59.0,-44.0,0.0,0.0,0.0,0.0,0.0,0.0,0.0,0.0,0
-68.0,30.0,-39.0,-38.0,-89.0,-74.0,-62.0,-27.0,0.0,0.0,0.0,0.0,0.0,0.0,0.0,0.0,0
-120.0,-29.0,-63.0,-47.0,-80.0,-62.0,-48.0,-20.0,0.0,0.0,0.0,0.0,0.0,0.0,0.0,0.0,0
-193.0,-95.0,-81.0,-62.0,-68.0,-42.0,-35.0,-18.0,0.0,0.0,0.0,0.0,0.0,0.0,0.0,0.0,0
-223.0,-114.0,-73.0,-76.0,-63.0,-27.0,-35.0,-8.0,0.0,0.0,0.0,0.0,0.0,0.0,0.0,0.0,0
-222.0,-126.0,-56.0,-88.0,-47.0,-10.0,-21.0,-1.0,0.0,0.0,0.0,0.0,0.0,0.0,0.0,0.0,0
-217.0,-133.0,-40.0,-90.0,-32.0,11.0,-9.0,3.0,0.0,0.0,0.0,0.0,0.0,0.0,0.0,0.0,0
-185.0,-137.0,-34.0,-82.0,-12.0,19.0,-3.0,-6.0,0.0,0.0,0.0,0.0,0.0,0.0,0.0,0.0,0
-132.0,-148.0,-28.0,-69.0,7.0,28.0,1.0,-17.0,0.0,0.0,0.0,0.0,0.0,0.0,0.0,0.0,0
-91.0,-140.0,-17.0,-48.0,18.0,34.0,-3.0,-20.0,0.0,0.0,0.0,0.0,0.0,0.0,0.0,0.0,0
-34.0,-101.0,5.0,-27.0,28.0,30.0,2.0,-31.0,0.0,0.0,0.0,0.0,0.0,0.0,0.0,0.0,0
41.0,-67.0,18.0,13.0,45.0,16.0,-1.0,-42.0,0.0,0.0,0.0,0.0,0.0,0.0,0.0,0.0,0
66.0,-48.0,16.0,58.0,53.0,2.0,-4.0,-44.0,0.0,0.0,0.0,0.0,0.0,0.0,0.0,0.0,0
81.0,-25.0,22.0,85.0,55.0,-11.0,-11.0,-46.0,0.0,0.0,0.0,0.0,0.0,0.0,0.0,0.0,0
106.0,13.0,37.0,97.0,48.0,-23.0,-16.0,-44.0,0.0,0.0,0.0,0.0,0.0,0.0,0.0,0.0,0
100.0,46.0,39.0,105.0,24.0,-36.0,-14.0,-33.0,0.0,0.0,0.0,0.0,0.0,0.0,0.0,0.0,0
88.0,68.0,43.0,104.0,5.0,-43.0,-29.0,-41.0,0.0,0.0,0.0,0.0,0.0,0.0,0.0,0.0,0
77.0,77.0,37.0,74.0,-30.0,-68.0,-48.0,-45.0,0.0,0.0,0.0,0.0,0.0,0.0,0.0,0.0,0
58.0,70.0,3.0,51.0,-61.0,-90.0,-55.0,-41.0,0.0,0.0,0.0,0.0,0.0,0.0,0.0,0.0,0
39.0,50.0,-25.0,16.0,-80.0,-96.0,-60.0,-43.0,0.0,0.0,0.0,0.0,0.0,0.0,0.0,0.0,0
14.0,37.0,-30.0,-22.0,-91.0,-95.0,-56.0,-38.0,0.0,0.0,0.0,0.0,0.0,0.0,0.0,0.0,0
-46.0,21.0,-53.0,-62.0,-102.0,-92.0,-59.0,-28.0,0.0,0.0,0.0,0.0,0.0,0.0,0.0,0.0,0
-98.0,-9.0,-88.0,-95.0,-113.0,-85.0,-54.0,-23.0,0.0,0.0,0.0,0.0,0.0,0.0,0.0,0.0,0
-129.0,-60.0,-106.0,-113.0,-106.0,-68.0,-45.0,-18.0,0.0,0.0,0.0,0.0,0.0,0.0,0.0,0.0,0
-154.0,-96.0,-124.0,-138.0,-106.0,-56.0,-36.0,-14.0,0.0,0.0,0.0,0.0,0.0,0.0,0.0,0.0,0
-186.0,-128.0,-147.0,-179.0,-117.0,-49.0,-33.0,-10.0,0.0,0.0,0.0,0.0,0.0,0.0,0.0,0.0,0
-191.0,-156.0,-158.0,-200.0,-118.0,-46.0,-24.0,-18.0,0.0,0.0,0.0,0.0,0.0,0.0,0.0,0.0,0
-161.0,-171.0,-166.0,-202.0,-115.0,-46.0,-24.0,-25.0,0.0,0.0,0.0,0.0,0.0,0.0,0.0,0.0,0
-110.0,-170.0,-156.0,-203.0,-103.0,-43.0,-18.0,-35.0,0.0,0.0,0.0,0.0,0.0,0.0,0.0,0.0,0
-72.0,-150.0,-135.0,-197.0,-102.0,-37.0,-24.0,-46.0,0.0,0.0,0.0,0.0,0.0,0.0,0.0,0.0,0
-26.0,-113.0,-95.0,-157.0,-78.0,-29.0,-21.0,-51.0,0.0,0.0,0.0,0.0,0.0,0.0,0.0,0.0,0
53.0,-85.0,-56.0,-111.0,-48.0,-6.0,-12.0,-51.0,0.0,0.0,0.0,0.0,0.0,0.0,0.0,0.0,0
74.0,-61.0,-43.0,-78.0,-28.0,-5.0,-10.0,-49.0,0.0,0.0,0.0,0.0,0.0,0.0,0.0,0.0,0
43.0,-43.0,-17.0,-37.0,-11.0,-7.0,-16.0,-52.0,0.0,0.0,0.0,0.0,0.0,0.0,0.0,0.0,0
40.0,-7.0,-3.0,-24.0,-22.0,-16.0,-26.0,-56.0,0.0,0.0,0.0,0.0,0.0,0.0,0.0,0.0,0
57.0,35.0,5.0,-6.0,-40.0,-40.0,-41.0,-57.0,0.0,0.0,0.0,0.0,0.0,0.0,0.0,0.0,0
80.0,63.0,19.0,13.0,-49.0,-61.0,-55.0,-56.0,0.0,0.0,0.0,0.0,0.0,0.0,0.0,0.0,0
84.0,71.0,38.0,35.0,-55.0,-67.0,-56.0,-48.0,0.0,0.0,0.0,0.0,0.0,0.0,0.0,0.0,0
49.0,65.0,27.0,58.0,-50.0,-65.0,-55.0,-44.0,0.0,0.0,0.0,0.0,0.0,0.0,0.0,0.0,0
27.0,69.0,22.0,55.0,-36.0,-58.0,-55.0,-42.0,0.0,0.0,0.0,0.0,0.0,0.0,0.0,0.0,0
24.0,65.0,32.0,66.0,-31.0,-46.0,-58.0,-39.0,0.0,0.0,0.0,0.0,0.0,0.0,0.0,0.0,0
-50.0,34.0,18.0,60.0,-24.0,-41.0,-44.0,-25.0,0.0,0.0,0.0,0.0,0.0,0.0,0.0,0.0,0
-100.0,7.0,-21.0,35.0,-24.0,-40.0,-44.0,-16.0,0.0,0.0,0.0,0.0,0.0,0.0,0.0,0.0,0
-104.0,-25.0,-51.0,10.0,-23.0,-37.0,-51.0,-15.0,0.0,0.0,0.0,0.0,0.0,0.0,0.0,0.0,0
-122.0,-55.0,-49.0,-3.0,-21.0,-24.0,-47.0,-20.0,0.0,0.0,0.0,0.0,0.0,0.0,0.0,0.0,0
-163.0,-92.0,-44.0,-7.0,-19.0,-21.0,-31.0,-16.0,0.0,0.0,0.0,0.0,0.0,0.0,0.0,0.0,0
-195.0,-131.0,-45.0,-19.0,-11.0,-13.0,-26.0,-14.0,0.0,0.0,0.0,0.0,0.0,0.0,0.0,0.0,0
-183.0,-144.0,-33.0,-22.0,-6.0,4.0,-23.0,-16.0,0.0,0.0,0.0,0.0,0.0,0.0,0.0,0.0,0
-128.0,-133.0,-26.0,-34.0,-1.0,15.0,-13.0,-15.0,0.0,0.0,0.0,0.0,0.0,0.0,0.0,0.0,0
-83.0,-113.0,-9.0,-38.0,12.0,20.0,-12.0,-22.0,0.0,0.0,0.0,0.0,0.0,0.0,0.0,0.0,0
-55.0,-98.0,-3.0,-36.0,11.0,16.0,-9.0,-32.0,0.0,0.0,0.0,0.0,0.0,0.0,0.0,0.0,0
-9.0,-78.0,4.0,-26.0,-2.0,6.0,-9.0,-31.0,0.0,0.0,0.0,0.0,0.0,0.0,0.0,0.0,0
21.0,-49.0,22.0,-15.0,0.0,1.0,-22.0,-34.0,0.0,0.0,0.0,0.0,0.0,0.0,0.0,0.0,0
38.0,-15.0,26.0,-3.0,8.0,-4.0,-28.0,-43.0,0.0,0.0,0.0,0.0,0.0,0.0,0.0,0.0,0
70.0,19.0,25.0,2.0,17.0,-13.0,-31.0,-50.0,0.0,0.0,0.0,0.0,0.0,0.0,0.0,0.0,0
65.0,41.0,-4.0,-18.0,10.0,-33.0,-39.0,-41.0,0.0,0.0,0.0,0.0,0.0,0.0,0.0,0.0,0
37.0,50.0,-26.0,-20.0,-10.0,-43.0,-48.0,-42.0,0.0,0.0,0.0,0.0,0.0,0.0,0.0,0.0,0
33.0,52.0,-42.0,-11.0,-15.0,-43.0,-47.0,-43.0,0.0,0.0,0.0,0.0,0.0,0.0,0.0,0.0,0
15.0,54.0,-47.0,-1.0,-16.0,-45.0,-53.0,-38.0,0.0,0.0,0.0,0.0,0.0,0.0,0.0,0.0,0
2.0,67.0,-27.0,12.0,-26.0,-57.0,-55.0,-39.0,0.0,0.0,0.0,0.0,0.0,0.0,0.0,0.0,0
4.0,64.0,-17.0,20.0,-34.0,-56.0,-46.0,-32.0,0.0,0.0,0.0,0.0,0.0,0.0,0.0,0.0,0
-20.0,39.0,-26.0,14.0,-38.0,-43.0,-40.0,-17.0,0.0,0.0,0.0,0.0,0.0,0.0,0.0,0.0,0
-71.0,5.0,-27.0,9.0,-43.0,-37.0,-32.0,-12.0,0.0,0.0,0.0,0.0,0.0,0.0,0.0,0.0,0
-109.0,-25.0,-14.0,8.0,-40.0,-36.0,-29.0,-12.0,0.0,0.0,0.0,0.0,0.0,0.0,0.0,0.0,0
-132.0,-74.0,-34.0,-16.0,-45.0,-36.0,-24.0,-6.0,0.0,0.0,0.0,0.0,0.0,0.0,0.0,0.0,0
-181.0,-105.0,-42.0,-44.0,-52.0,-33.0,-21.0,-10.0,0.0,0.0,0.0,0.0,0.0,0.0,0.0,0.0,0
-195.0,-129.0,-46.0,-68.0,-54.0,-25.0,-21.0,-17.0,0.0,0.0,0.0,0.0,0.0,0.0,0.0,0.0,0
-170.0,-154.0,-55.0,-74.0,-44.0,-14.0,-16.0,-26.0,0.0,0.0,0.0,0.0,0.0,0.0,0.0,0.0,0
-107.0,-128.0,-56.0,-77.0,-44.0,-4.0,-17.0,-30.0,0.0,0.0,0.0,0.0,0.0,0.0,0.0,0.0,0
-60.0,-79.0,-59.0,-103.0,-43.0,-4.0,-16.0,-36.0,0.0,0.0,0.0,0.0,0.0,0.0,0.0,0.0,0
-16.0,-46.0,-67.0,-120.0,-42.0,-13.0,-19.0,-55.0,0.0,0.0,0.0,0.0,0.0,0.0,0.0,0.0,0
29.0,-35.0,-83.0,-137.0,-53.0,-24.0,-28.0,-73.0,0.0,0.0,0.0,0.0,0.0,0.0,0.0,0.0,0
40.0,-55.0,-94.0,-138.0,-61.0,-30.0,-26.0,-66.0,0.0,0.0,0.0,0.0,0.0,0.0,0.0,0.0,0
62.0,-74.0,-90.0,-120.0,-65.0,-41.0,-28.0,-71.0,0.0,0.0,0.0,0.0,0.0,0.0,0.0,0.0,0
94.0,-33.0,-73.0,-104.0,-64.0,-48.0,-30.0,-67.0,0.0,0.0,0.0,0.0,0.0,0.0,0.0,0.0,0
90.0,11.0,-51.0,-79.0,-67.0,-56.0,-36.0,-51.0,0.0,0.0,0.0,0.0,0.0,0.0,0.0,0.0,0
51.0,27.0,-49.0,-58.0,-69.0,-68.0,-42.0,-51.0,0.0,0.0,0.0,0.0,0.0,0.0,0.0,0.0,0
40.0,36.0,-46.0,-35.0,-71.0,-71.0,-44.0,-48.0,0.0,0.0,0.0,0.0,0.0,0.0,0.0,0.0,0
35.0,30.0,-27.0,-16.0,-64.0,-61.0,-42.0,-39.0,0.0,0.0,0.0,0.0,0.0,0.0,0.0,0.0,0
27.0,34.0,-5.0,5.0,-58.0,-52.0,-37.0,-33.0,0.0,0.0,0.0,0.0,0.0,0.0,0.0,0.0,0
27.0,36.0,1.0,23.0,-55.0,-44.0,-35.0,-36.0,0.0,0.0,0.0,0.0,0.0,0.0,0.0,0.0,0
-23.0,12.0,-12.0,19.0,-57.0,-37.0,-32.0,-37.0,0.0,0.0,0.0,0.0,0.0,0.0,0.0,0.0,0
-67.0,-12.0,-17.0,11.0,-44.0,-31.0,-28.0,-34.0,0.0,0.0,0.0,0.0,0.0,0.0,0.0,0.0,0
-84.0,-34.0,-22.0,8.0,-31.0,-23.0,-31.0,-24.0,0.0,0.0,0.0,0.0,0.0,0.0,0.0,0.0,0
-87.0,-52.0,-29.0,-11.0,-34.0,-14.0,-24.0,-17.0,0.0,0.0,0.0,0.0,0.0,0.0,0.0,0.0,0
-129.0,-74.0,-42.0,-28.0,-28.0,-4.0,-21.0,-13.0,0.0,0.0,0.0,0.0,0.0,0.0,0.0,0.0,0
-146.0,-87.0,-47.0,-35.0,-12.0,6.0,-15.0,-15.0,0.0,0.0,0.0,0.0,0.0,0.0,0.0,0.0,0
-116.0,-81.0,-34.0,-48.0,-3.0,9.0,-2.0,-19.0,0.0,0.0,0.0,0.0,0.0,0.0,0.0,0.0,0
-96.0,-87.0,-49.0,-77.0,-18.0,7.0,0.0,-32.0,0.0,0.0,0.0,0.0,0.0,0.0,0.0,0.0,0
-93.0,-114.0,-72.0,-89.0,-32.0,-7.0,-14.0,-51.0,0.0,0.0,0.0,0.0,0.0,0.0,0.0,0.0,0
-51.0,-105.0,-59.0,-57.0,-2.0,-14.0,-20.0,-63.0,0.0,0.0,0.0,0.0,0.0,0.0,0.0,0.0,0
6.0,-73.0,-42.0,-60.0,-12.0,-10.0,-23.0,-73.0,0.0,0.0,0.0,0.0,0.0,0.0,0.0,0.0,0
29.0,-51.0,-38.0,-66.0,-32.0,-25.0,-30.0,-69.0,0.0,0.0,0.0,0.0,0.0,0.0,0.0,0.0,0
36.0,-20.0,-21.0,-48.0,-28.0,-35.0,-24.0,-64.0,0.0,0.0,0.0,0.0,0.0,0.0,0.0,0.0,0
58.0,9.0,0.0,-15.0,-17.0,-45.0,-29.0,-66.0,0.0,0.0,0.0,0.0,0.0,0.0,0.0,0.0,0
44.0,35.0,27.0,24.0,-3.0,-47.0,-31.0,-43.0,0.0,0.0,0.0,0.0,0.0,0.0,0.0,0.0,0
17.0,52.0,52.0,66.0,7.0,-43.0,-30.0,-33.0,0.0,0.0,0.0,0.0,0.0,0.0,0.0,0.0,0
24.0,58.0,62.0,96.0,18.0,-37.0,-30.0,-25.0,0.0,0.0,0.0,0.0,0.0,0.0,0.0,0.0,0
22.0,61.0,68.0,115.0,26.0,-33.0,-35.0,-22.0,0.0,0.0,0.0,0.0,0.0,0.0,0.0,0.0,0
8.0,60.0,70.0,126.0,28.0,-34.0,-31.0,-24.0,0.0,0.0,0.0,0.0,0.0,0.0,0.0,0.0,0
-31.0,40.0,65.0,119.0,29.0,-34.0,-31.0,-20.0,0.0,0.0,0.0,0.0,0.0,0.0,0.0,0.0,0
-65.0,24.0,50.0,96.0,22.0,-26.0,-32.0,-17.0,0.0,0.0,0.0,0.0,0.0,0.0,0.0,0.0,0
-67.0,11.0,33.0,64.0,5.0,-25.0,-38.0,-14.0,0.0,0.0,0.0,0.0,0.0,0.0,0.0,0.0,0
-82.0,-16.0,14.0,23.0,-3.0,-28.0,-38.0,-8.0,0.0,0.0,0.0,0.0,0.0,0.0,0.0,0.0,0
-93.0,-39.0,-4.0,-14.0,-29.0,-27.0,-41.0,-11.0,0.0,0.0,0.0,0.0,0.0,0.0,0.0,0.0,0
-125.0,-76.0,-37.0,-50.0,-42.0,-32.0,-45.0,-13.0,0.0,0.0,0.0,0.0,0.0,0.0,0.0,0.0,0
-163.0,-93.0,-73.0,-85.0,-42.0,-31.0,-44.0,-21.0,0.0,0.0,0.0,0.0,0.0,0.0,0.0,0.0,0
-147.0,-91.0,-94.0,-113.0,-59.0,-36.0,-41.0,-30.0,0.0,0.0,0.0,0.0,0.0,0.0,0.0,0.0,0
-81.0,-91.0,-102.0,-129.0,-68.0,-24.0,-43.0,-34.0,0.0,0.0,0.0,0.0,0.0,0.0,0.0,0.0,0
-47.0,-96.0,-113.0,-143.0,-74.0,-25.0,-42.0,-42.0,0.0,0.0,0.0,0.0,0.0,0.0,0.0,0.0,0
-47.0,-110.0,-120.0,-165.0,-74.0,-29.0,-44.0,-45.0,0.0,0.0,0.0,0.0,0.0,0.0,0.0,0.0,0
-24.0,-95.0,-119.0,-173.0,-81.0,-41.0,-45.0,-50.0,0.0,0.0,0.0,0.0,0.0,0.0,0.0,0.0,0
10.0,-75.0,-114.0,-173.0,-96.0,-48.0,-49.0,-56.0,0.0,0.0,0.0,0.0,0.0,0.0,0.0,0.0,0
33.0,-68.0,-104.0,-152.0,-91.0,-52.0,-56.0,-58.0,0.0,0.0,0.0,0.0,0.0,0.0,0.0,0.0,0
42.0,-56.0,-91.0,-118.0,-88.0,-58.0,-52.0,-58.0,0.0,0.0,0.0,0.0,0.0,0.0,0.0,0.0,0
31.0,-37.0,-75.0,-103.0,-82.0,-60.0,-49.0,-52.0,0.0,0.0,0.0,0.0,0.0,0.0,0.0,0.0,0
8.0,-14.0,-54.0,-82.0,-82.0,-75.0,-47.0,-48.0,0.0,0.0,0.0,0.0,0.0,0.0,0.0,0.0,0
11.0,-2.0,-39.0,-63.0,-85.0,-76.0,-46.0,-46.0,0.0,0.0,0.0,0.0,0.0,0.0,0.0,0.0,0
6.0,8.0,-36.0,-49.0,-88.0,-64.0,-51.0,-34.0,0.0,0.0,0.0,0.0,0.0,0.0,0.0,0.0,0
2.0,16.0,-28.0,-28.0,-88.0,-61.0,-41.0,-26.0,0.0,0.0,0.0,0.0,0.0,0.0,0.0,0.0,0
-2.0,9.0,-14.0,-8.0,-84.0,-56.0,-36.0,-28.0,0.0,0.0,0.0,0.0,0.0,0.0,0.0,0.0,0
-29.0,8.0,-7.0,8.0,-73.0,-42.0,-31.0,-19.0,0.0,0.0,0.0,0.0,0.0,0.0,0.0,0.0,0
-48.0,5.0,10.0,17.0,-52.0,-37.0,-32.0,-13.0,0.0,0.0,0.0,0.0,0.0,0.0,0.0,0.0,0
-62.0,-13.0,13.0,23.0,-34.0,-18.0,-23.0,-13.0,0.0,0.0,0.0,0.0,0.0,0.0,0.0,0.0,0
-78.0,-36.0,-10.0,18.0,-23.0,-14.0,-18.0,-12.0,0.0,0.0,0.0,0.0,0.0,0.0,0.0,0.0,0
-107.0,-50.0,-24.0,1.0,-19.0,-6.0,-19.0,-6.0,0.0,0.0,0.0,0.0,0.0,0.0,0.0,0.0,0
-124.0,-62.0,-26.0,4.0,4.0,-1.0,-13.0,-3.0,0.0,0.0,0.0,0.0,0.0,0.0,0.0,0.0,0
-124.0,-75.0,-33.0,17.0,26.0,12.0,-21.0,-11.0,0.0,0.0,0.0,0.0,0.0,0.0,0.0,0.0,0
-99.0,-94.0,-41.0,16.0,26.0,7.0,-21.0,-23.0,0.0,0.0,0.0,0.0,0.0,0.0,0.0,0.0,0
-81.0,-89.0,-48.0,8.0,28.0,-1.0,-18.0,-25.0,0.0,0.0,0.0,0.0,0.0,0.0,0.0,0.0,0
-54.0,-68.0,-45.0,12.0,25.0,-2.0,-9.0,-31.0,0.0,0.0,0.0,0.0,0.0,0.0,0.0,0.0,0
-11.0,-44.0,-32.0,18.0,19.0,-5.0,-13.0,-24.0,0.0,0.0,0.0,0.0,0.0,0.0,0.0,0.0,0
15.0,-31.0,-16.0,27.0,11.0,-11.0,-17.0,-29.0,0.0,0.0,0.0,0.0,0.0,0.0,0.0,0.0,0
31.0,-15.0,-6.0,18.0,-9.0,-23.0,-22.0,-34.0,0.0,0.0,0.0,0.0,0.0,0.0,0.0,0.0,0
40.0,-3.0,-9.0,-6.0,-37.0,-37.0,-30.0,-38.0,0.0,0.0,0.0,0.0,0.0,0.0,0.0,0.0,0
27.0,-6.0,-20.0,-35.0,-54.0,-49.0,-38.0,-35.0,0.0,0.0,0.0,0.0,0.0,0.0,0.0,0.0,0
6.0,-10.0,-30.0,-48.0,-61.0,-52.0,-38.0,-33.0,0.0,0.0,0.0,0.0,0.0,0.0,0.0,0.0,0
3.0,-3.0,-32.0,-50.0,-72.0,-55.0,-38.0,-41.0,0.0,0.0,0.0,0.0,0.0,0.0,0.0,0.0,0
5.0,7.0,-25.0,-58.0,-79.0,-60.0,-36.0,-52.0,0.0,0.0,0.0,0.0,0.0,0.0,0.0,0.0,0
7.0,8.0,-18.0,-56.0,-79.0,-62.0,-42.0,-51.0,0.0,0.0,0.0,0.0,0.0,0.0,0.0,0.0,0
8.0,2.0,-19.0,-71.0,-84.0,-56.0,-46.0,-50.0,0.0,0.0,0.0,0.0,0.0,0.0,0.0,0.0,0
-19.0,-14.0,-23.0,-79.0,-80.0,-45.0,-39.0,-42.0,0.0,0.0,0.0,0.0,0.0,0.0,0.0,0.0,0
-56.0,-25.0,-32.0,-75.0,-66.0,-34.0,-36.0,-38.0,0.0,0.0,0.0,0.0,0.0,0.0,0.0,0.0,0
-97.0,-35.0,-34.0,-60.0,-51.0,-25.0,-35.0,-35.0,0.0,0.0,0.0,0.0,0.0,0.0,0.0,0.0,0
-101.0,-39.0,-28.0,-42.0,-41.0,-13.0,-30.0,-36.0,0.0,0.0,0.0,0.0,0.0,0.0,0.0,0.0,0
-112.0,-53.0,-23.0,-40.0,-24.0,1.0,-20.0,-29.0,0.0,0.0,0.0,0.0,0.0,0.0,0.0,0.0,0
-109.0,-73.0,-36.0,-37.0,-19.0,-5.0,-15.0,-33.0,0.0,0.0,0.0,0.0,0.0,0.0,0.0,0.0,0
-91.0,-74.0,-42.0,-33.0,-19.0,-8.0,-10.0,-44.0,0.0,0.0,0.0,0.0,0.0,0.0,0.0,0.0,0
-75.0,-67.0,-32.0,-24.0,-13.0,-2.0,-15.0,-36.0,0.0,0.0,0.0,0.0,0.0,0.0,0.0,0.0,0
-73.0,-59.0,-31.0,-26.0,-13.0,-15.0,-18.0,-46.0,0.0,0.0,0.0,0.0,0.0,0.0,0.0,0.0,0
-46.0,-58.0,-46.0,-31.0,-19.0,-25.0,-29.0,-59.0,0.0,0.0,0.0,0.0,0.0,0.0,0.0,0.0,0
-1.0,-75.0,-51.0,-19.0,-6.0,-24.0,-33.0,-69.0,0.0,0.0,0.0,0.0,0.0,0.0,0.0,0.0,0
2.0,-78.0,-55.0,-24.0,-3.0,-25.0,-28.0,-66.0,0.0,0.0,0.0,0.0,0.0,0.0,0.0,0.0,0
-4.0,-51.0,-33.0,-33.0,-35.0,-34.0,-37.0,-70.0,0.0,0.0,0.0,0.0,0.0,0.0,0.0,0.0,0
30.0,-23.0,-24.0,-37.0,-49.0,-46.0,-46.0,-66.0,0.0,0.0,0.0,0.0,0.0,0.0,0.0,0.0,0
19.0,-7.0,-30.0,-50.0,-52.0,-50.0,-47.0,-51.0,0.0,0.0,0.0,0.0,0.0,0.0,0.0,0.0,0
-11.0,1.0,-34.0,-56.0,-53.0,-52.0,-59.0,-43.0,0.0,0.0,0.0,0.0,0.0,0.0,0.0,0.0,0
-4.0,13.0,-36.0,-71.0,-56.0,-55.0,-67.0,-40.0,0.0,0.0,0.0,0.0,0.0,0.0,0.0,0.0,0
7.0,20.0,-51.0,-80.0,-61.0,-51.0,-66.0,-43.0,0.0,0.0,0.0,0.0,0.0,0.0,0.0,0.0,0
13.0,12.0,-58.0,-84.0,-65.0,-41.0,-61.0,-49.0,0.0,0.0,0.0,0.0,0.0,0.0,0.0,0.0,0
4.0,-3.0,-47.0,-72.0,-72.0,-41.0,-50.0,-48.0,0.0,0.0,0.0,0.0,0.0,0.0,0.0,0.0,0
-45.0,-17.0,-32.0,-53.0,-78.0,-37.0,-49.0,-35.0,0.0,0.0,0.0,0.0,0.0,0.0,0.0,0.0,0
-54.0,-15.0,-12.0,-37.0,-75.0,-26.0,-47.0,-32.0,0.0,0.0,0.0,0.0,0.0,0.0,0.0,0.0,0
-65.0,-20.0,1.0,-18.0,-55.0,-12.0,-46.0,-28.0,0.0,0.0,0.0,0.0,0.0,0.0,0.0,0.0,0
-77.0,-34.0,6.0,4.0,-31.0,-4.0,-40.0,-25.0,0.0,0.0,0.0,0.0,0.0,0.0,0.0,0.0,0
-122.0,-53.0,11.0,15.0,-9.0,-5.0,-32.0,-23.0,0.0,0.0,0.0,0.0,0.0,0.0,0.0,0.0,0
-164.0,-70.0,16.0,24.0,2.0,-2.0,-31.0,-20.0,0.0,0.0,0.0,0.0,0.0,0.0,0.0,0.0,0
-143.0,-71.0,25.0,27.0,22.0,-4.0,-37.0,-23.0,0.0,0.0,0.0,0.0,0.0,0.0,0.0,0.0,0
-83.0,-68.0,17.0,30.0,39.0,-5.0,-41.0,-35.0,0.0,0.0,0.0,0.0,0.0,0.0,0.0,0.0,0
-55.0,-71.0,-4.0,27.0,49.0,-8.0,-37.0,-36.0,0.0,0.0,0.0,0.0,0.0,0.0,0.0,0.0,0
-55.0,-62.0,-18.0,15.0,48.0,-10.0,-36.0,-38.0,0.0,0.0,0.0,0.0,0.0,0.0,0.0,0.0,0
-25.0,-52.0,-31.0,-9.0,35.0,-13.0,-35.0,-36.0,0.0,0.0,0.0,0.0,0.0,0.0,0.0,0.0,0
-6.0,-37.0,-47.0,-26.0,8.0,-25.0,-35.0,-30.0,0.0,0.0,0.0,0.0,0.0,0.0,0.0,0.0,0
8.0,-31.0,-62.0,-41.0,-13.0,-30.0,-31.0,-30.0,0.0,0.0,0.0,0.0,0.0,0.0,0.0,0.0,0
25.0,-21.0,-50.0,-48.0,-24.0,-34.0,-31.0,-37.0,0.0,0.0,0.0,0.0,0.0,0.0,0.0,0.0,0
21.0,-11.0,-37.0,-59.0,-52.0,-40.0,-44.0,-25.0,0.0,0.0,0.0,0.0,0.0,0.0,0.0,0.0,0
-3.0,-6.0,-44.0,-64.0,-72.0,-54.0,-52.0,-24.0,0.0,0.0,0.0,0.0,0.0,0.0,0.0,0.0,0
-1.0,-3.0,-36.0,-62.0,-67.0,-50.0,-41.0,-19.0,0.0,0.0,0.0,0.0,0.0,0.0,0.0,0.0,0
3.0,-4.0,-27.0,-44.0,-63.0,-41.0,-38.0,-23.0,0.0,0.0,0.0,0.0,0.0,0.0,0.0,0.0,0
7.0,-10.0,-29.0,-38.0,-61.0,-40.0,-35.0,-18.0,0.0,0.0,0.0,0.0,0.0,0.0,0.0,0.0,0
0.0,-18.0,-26.0,-46.0,-68.0,-42.0,-39.0,-20.0,0.0,0.0,0.0,0.0,0.0,0.0,0.0,0.0,0
-23.0,-17.0,-38.0,-61.0,-80.0,-61.0,-39.0,-18.0,0.0,0.0,0.0,0.0,0.0,0.0,0.0,0.0,0
-40.0,-30.0,-53.0,-72.0,-91.0,-57.0,-46.0,-17.0,0.0,0.0,0.0,0.0,0.0,0.0,0.0,0.0,0
-62.0,-53.0,-82.0,-90.0,-89.0,-42.0,-44.0,-16.0,0.0,0.0,0.0,0.0,0.0,0.0,0.0,0.0,0
-72.0,-60.0,-89.0,-103.0,-92.0,-48.0,-37.0,-17.0,0.0,0.0,0.0,0.0,0.0,0.0,0.0,0.0,0
-91.0,-45.0,-81.0,-107.0,-101.0,-46.0,-33.0,-6.0,0.0,0.0,0.0,0.0,0.0,0.0,0.0,0.0,0
-116.0,-46.0,-86.0,-113.0,-88.0,-33.0,-25.0,-6.0,0.0,0.0,0.0,0.0,0.0,0.0,0.0,0.0,0
-112.0,-69.0,-98.0,-125.0,-82.0,-31.0,-18.0,-19.0,0.0,0.0,0.0,0.0,0.0,0.0,0.0,0.0,0
-94.0,-67.0,-102.0,-127.0,-85.0,-41.0,-24.0,-28.0,0.0,0.0,0.0,0.0,0.0,0.0,0.0,0.0,0
-58.0,-73.0,-103.0,-114.0,-66.0,-38.0,-29.0,-33.0,0.0,0.0,0.0,0.0,0.0,0.0,0.0,0.0,0
-26.0,-56.0,-99.0,-87.0,-47.0,-38.0,-31.0,-37.0,0.0,0.0,0.0,0.0,0.0,0.0,0.0,0.0,0
16.0,-34.0,-93.0,-68.0,-32.0,-35.0,-31.0,-43.0,0.0,0.0,0.0,0.0,0.0,0.0,0.0,0.0,0
33.0,-26.0,-68.0,-46.0,-25.0,-23.0,-30.0,-35.0,0.0,0.0,0.0,0.0,0.0,0.0,0.0,0.0,0
25.0,-29.0,-43.0,-17.0,-13.0,-24.0,-29.0,-27.0,0.0,0.0,0.0,0.0,0.0,0.0,0.0,0.0,0
34.0,-30.0,-17.0,12.0,-4.0,-28.0,-33.0,-33.0,0.0,0.0,0.0,0.0,0.0,0.0,0.0,0.0,0
28.0,-19.0,10.0,39.0,9.0,-28.0,-40.0,-26.0,0.0,0.0,0.0,0.0,0.0,0.0,0.0,0.0,0
4.0,-2.0,31.0,58.0,10.0,-23.0,-41.0,-24.0,0.0,0.0,0.0,0.0,0.0,0.0,0.0,0.0,0
0.0,1.0,37.0,50.0,7.0,-28.0,-46.0,-28.0,0.0,0.0,0.0,0.0,0.0,0.0,0.0,0.0,0
2.0,-4.0,32.0,53.0,-1.0,-31.0,-49.0,-25.0,0.0,0.0,0.0,0.0,0.0,0.0,0.0,0.0,0
1.0,-12.0,31.0,57.0,3.0,-24.0,-42.0,-28.0,0.0,0.0,0.0,0.0,0.0,0.0,0.0,0.0,0
1.0,-9.0,23.0,43.0,-1.0,-21.0,-41.0,-25.0,0.0,0.0,0.0,0.0,0.0,0.0,0.0,0.0,0
-29.0,-13.0,4.0,12.0,-18.0,-27.0,-47.0,-31.0,0.0,0.0,0.0,0.0,0.0,0.0,0.0,0.0,0
-46.0,-24.0,-3.0,-9.0,-37.0,-34.0,-40.0,-31.0,0.0,0.0,0.0,0.0,0.0,0.0,0.0,0.0,0
-60.0,-26.0,-9.0,-21.0,-28.0,-25.0,-35.0,-23.0,0.0,0.0,0.0,0.0,0.0,0.0,0.0,0.0,0
-63.0,-39.0,-23.0,-32.0,-23.0,-21.0,-30.0,-28.0,0.0,0.0,0.0,0.0,0.0,0.0,0.0,0.0,0
-75.0,-38.0,-34.0,-43.0,-36.0,-28.0,-29.0,-14.0,0.0,0.0,0.0,0.0,0.0,0.0,0.0,0.0,0
-105.0,-58.0,-60.0,-78.0,-42.0,-29.0,-23.0,-20.0,0.0,0.0,0.0,0.0,0.0,0.0,0.0,0.0,0
-140.0,-98.0,-99.0,-91.0,-34.0,-21.0,-36.0,-52.0,0.0,0.0,0.0,0.0,0.0,0.0,0.0,0.0,0
-109.0,-104.0,-101.0,-64.0,-8.0,-18.0,-34.0,-57.0,0.0,0.0,0.0,0.0,0.0,0.0,0.0,0.0,0
-55.0,-75.0,-74.0,-39.0,5.0,-21.0,-24.0,-46.0,0.0,0.0,0.0,0.0,0.0,0.0,0.0,0.0,0
-31.0,-55.0,-54.0,-20.0,10.0,-17.0,-25.0,-52.0,0.0,0.0,0.0,0.0,0.0,0.0,0.0,0.0,0
-6.0,-46.0,-45.0,-19.0,5.0,-25.0,-28.0,-53.0,0.0,0.0,0.0,0.0,0.0,0.0,0.0,0.0,0
21.0,-34.0,-41.0,-22.0,-1.0,-29.0,-30.0,-51.0,0.0,0.0,0.0,0.0,0.0,0.0,0.0,0.0,0
24.0,-22.0,-29.0,-5.0,9.0,-29.0,-29.0,-49.0,0.0,0.0,0.0,0.0,0.0,0.0,0.0,0.0,0
36.0,-12.0,-18.0,-5.0,-6.0,-32.0,-32.0,-46.0,0.0,0.0,0.0,0.0,0.0,0.0,0.0,0.0,0
30.0,-8.0,-20.0,-8.0,-29.0,-42.0,-41.0,-40.0,0.0,0.0,0.0,0.0,0.0,0.0,0.0,0.0,0
2.0,-10.0,-32.0,-22.0,-41.0,-50.0,-52.0,-36.0,0.0,0.0,0.0,0.0,0.0,0.0,0.0,0.0,0
3.0,-8.0,-38.0,-36.0,-47.0,-52.0,-45.0,-33.0,0.0,0.0,0.0,0.0,0.0,0.0,0.0,0.0,0
14.0,-8.0,-25.0,-38.0,-57.0,-54.0,-45.0,-26.0,0.0,0.0,0.0,0.0,0.0,0.0,0.0,0.0,0
13.0,-11.0,-21.0,-46.0,-67.0,-59.0,-45.0,-32.0,0.0,0.0,0.0,0.0,0.0,0.0,0.0,0.0,0
17.0,-24.0,-28.0,-51.0,-79.0,-58.0,-43.0,-35.0,0.0,0.0,0.0,0.0,0.0,0.0,0.0,0.0,0
-4.0,-36.0,-29.0,-47.0,-87.0,-64.0,-44.0,-30.0,0.0,0.0,0.0,0.0,0.0,0.0,0.0,0.0,0
-35.0,-40.0,-40.0,-53.0,-87.0,-75.0,-43.0,-27.0,0.0,0.0,0.0,0.0,0.0,0.0,0.0,0.0,0
-49.0,-50.0,-51.0,-60.0,-82.0,-72.0,-34.0,-20.0,0.0,0.0,0.0,0.0,0.0,0.0,0.0,0.0,0
-79.0,-65.0,-63.0,-67.0,-83.0,-70.0,-28.0,-17.0,0.0,0.0,0.0,0.0,0.0,0.0,0.0,0.0,0
-118.0,-66.0,-62.0,-76.0,-83.0,-57.0,-30.0,-16.0,0.0,0.0,0.0,0.0,0.0,0.0,0.0,0.0,0
-109.0,-58.0,-57.0,-72.0,-69.0,-49.0,-32.0,-14.0,0.0,0.0,0.0,0.0,0.0,0.0,0.0,0.0,0
-109.0,-58.0,-64.0,-83.0,-65.0,-48.0,-36.0,-21.0,0.0,0.0,0.0,0.0,0.0,0.0,0.0,0.0,0
-113.0,-60.0,-67.0,-87.0,-60.0,-39.0,-27.0,-35.0,0.0,0.0,0.0,0.0,0.0,0.0,0.0,0.0,0
-84.0,-60.0,-62.0,-77.0,-44.0,-41.0,-31.0,-31.0,0.0,0.0,0.0,0.0,0.0,0.0,0.0,0.0,0
-50.0,-47.0,-64.0,-63.0,-30.0,-40.0,-34.0,-42.0,0.0,0.0,0.0,0.0,0.0,0.0,0.0,0.0,0
-11.0,-39.0,-54.0,-52.0,-10.0,-32.0,-36.0,-41.0,0.0,0.0,0.0,0.0,0.0,0.0,0.0,0.0,0
1.0,-31.0,-37.0,-31.0,11.0,-26.0,-32.0,-42.0,0.0,0.0,0.0,0.0,0.0,0.0,0.0,0.0,0
7.0,-18.0,-10.0,-4.0,24.0,-16.0,-24.0,-53.0,0.0,0.0,0.0,0.0,0.0,0.0,0.0,0.0,0
33.0,-5.0,9.0,29.0,32.0,-10.0,-35.0,-55.0,0.0,0.0,0.0,0.0,0.0,0.0,0.0,0.0,0
25.0,-5.0,10.0,43.0,28.0,-21.0,-42.0,-42.0,0.0,0.0,0.0,0.0,0.0,0.0,0.0,0.0,0
2.0,-1.0,9.0,53.0,21.0,-25.0,-44.0,-42.0,0.0,0.0,0.0,0.0,0.0,0.0,0.0,0.0,0
-7.0,-1.0,20.0,50.0,-1.0,-36.0,-50.0,-38.0,0.0,0.0,0.0,0.0,0.0,0.0,0.0,0.0,0
-18.0,5.0,31.0,34.0,-10.0,-40.0,-49.0,-32.0,0.0,0.0,0.0,0.0,0.0,0.0,0.0,0.0,0
-12.0,3.0,33.0,30.0,-20.0,-39.0,-42.0,-33.0,0.0,0.0,0.0,0.0,0.0,0.0,0.0,0.0,0
10.0,-5.0,23.0,23.0,-31.0,-35.0,-48.0,-30.0,0.0,0.0,0.0,0.0,0.0,0.0,0.0,0.0,0
-7.0,-9.0,3.0,-17.0,-58.0,-46.0,-55.0,-25.0,0.0,0.0,0.0,0.0,0.0,0.0,0.0,0.0,0
-39.0,-19.0,-18.0,-53.0,-78.0,-59.0,-48.0,-17.0,0.0,0.0,0.0,0.0,0.0,0.0,0.0,0.0,0
-79.0,-48.0,-46.0,-67.0,-81.0,-57.0,-47.0,-19.0,0.0,0.0,0.0,0.0,0.0,0.0,0.0,0.0,0
-95.0,-73.0,-70.0,-80.0,-73.0,-56.0,-50.0,-21.0,0.0,0.0,0.0,0.0,0.0,0.0,0.0,0.0,0
-115.0,-75.0,-79.0,-90.0,-73.0,-59.0,-39.0,-24.0,0.0,0.0,0.0,0.0,0.0,0.0,0.0,0.0,0
-143.0,-78.0,-82.0,-101.0,-74.0,-61.0,-41.0,-24.0,0.0,0.0,0.0,0.0,0.0,0.0,0.0,0.0,0
-115.0,-69.0,-78.0,-90.0,-59.0,-61.0,-47.0,-44.0,0.0,0.0,0.0,0.0,0.0,0.0,0.0,0.0,0
-72.0,-54.0,-67.0,-76.0,-43.0,-52.0,-48.0,-50.0,0.0,0.0,0.0,0.0,0.0,0.0,0.0,0.0,0
-55.0,-43.0,-63.0,-69.0,-39.0,-46.0,-44.0,-55.0,0.0,0.0,0.0,0.0,0.0,0.0,0.0,0.0,0
-33.0,-43.0,-70.0,-67.0,-34.0,-40.0,-40.0,-62.0,0.0,0.0,0.0,0.0,0.0,0.0,0.0,0.0,0
-18.0,-45.0,-76.0,-65.0,-27.0,-34.0,-38.0,-57.0,0.0,0.0,0.0,0.0,0.0,0.0,0.0,0.0,0
-13.0,-33.0,-72.0,-62.0,-17.0,-30.0,-28.0,-52.0,0.0,0.0,0.0,0.0,0.0,0.0,0.0,0.0,0
-1.0,-19.0,-60.0,-42.0,0.0,-22.0,-28.0,-44.0,0.0,0.0,0.0,0.0,0.0,0.0,0.0,0.0,0
28.0,-5.0,-46.0,-34.0,9.0,-17.0,-24.0,-43.0,0.0,0.0,0.0,0.0,0.0,0.0,0.0,0.0,0
13.0,13.0,-23.0,-18.0,14.0,-11.0,-18.0,-33.0,0.0,0.0,0.0,0.0,0.0,0.0,0.0,0.0,0
-7.0,5.0,1.0,-9.0,10.0,-7.0,-16.0,-25.0,0.0,0.0,0.0,0.0,0.0,0.0,0.0,0.0,0
-6.0,-1.0,29.0,7.0,4.0,-10.0,-17.0,-27.0,0.0,0.0,0.0,0.0,0.0,0.0,0.0,0.0,0
-18.0,5.0,37.0,15.0,-2.0,-13.0,-21.0,-18.0,0.0,0.0,0.0,0.0,0.0,0.0,0.0,0.0,0
-5.0,2.0,22.0,-1.0,-9.0,-13.0,-17.0,-23.0,0.0,0.0,0.0,0.0,0.0,0.0,0.0,0.0,0
27.0,-8.0,2.0,-1.0,-9.0,-9.0,-21.0,-26.0,0.0,0.0,0.0,0.0,0.0,0.0,0.0,0.0,0
3.0,-22.0,6.0,-3.0,-8.0,-19.0,-21.0,-25.0,0.0,0.0,0.0,0.0,0.0,0.0,0.0,0.0,0
-24.0,-18.0,11.0,-10.0,-18.0,-25.0,-29.0,-14.0,0.0,0.0,0.0,0.0,0.0,0.0,0.0,0.0,0
-63.0,-30.0,3.0,-28.0,-29.0,-30.0,-32.0,-9.0,0.0,0.0,0.0,0.0,0.0,0.0,0.0,0.0,0
-124.0,-57.0,-31.0,-59.0,-36.0,-41.0,-39.0,-23.0,0.0,0.0,0.0,0.0,0.0,0.0,0.0,0.0,0
-163.0,-65.0,-50.0,-72.0,-39.0,-43.0,-47.0,-29.0,0.0,0.0,0.0,0.0,0.0,0.0,0.0,0.0,0
-130.0,-58.0,-48.0,-64.0,-28.0,-40.0,-41.0,-23.0,0.0,0.0,0.0,0.0,0.0,0.0,0.0,0.0,0
-91.0,-38.0,-44.0,-68.0,-24.0,-30.0,-29.0,-28.0,0.0,0.0,0.0,0.0,0.0,0.0,0.0,0.0,0
-78.0,-30.0,-52.0,-75.0,-32.0,-32.0,-27.0,-38.0,0.0,0.0,0.0,0.0,0.0,0.0,0.0,0.0,0
-87.0,-51.0,-52.0,-61.0,-38.0,-42.0,-32.0,-49.0,0.0,0.0,0.0,0.0,0.0,0.0,0.0,0.0,0
-63.0,-70.0,-62.0,-51.0,-33.0,-47.0,-44.0,-63.0,0.0,0.0,0.0,0.0,0.0,0.0,0.0,0.0,0
-19.0,-76.0,-77.0,-53.0,-35.0,-48.0,-48.0,-72.0,0.0,0.0,0.0,0.0,0.0,0.0,0.0,0.0,0
-7.0,-58.0,-77.0,-67.0,-41.0,-50.0,-41.0,-65.0,0.0,0.0,0.0,0.0,0.0,0.0,0.0,0.0,0
3.0,-38.0,-77.0,-60.0,-38.0,-46.0,-37.0,-57.0,0.0,0.0,0.0,0.0,0.0,0.0,0.0,0.0,0
10.0,-33.0,-72.0,-50.0,-32.0,-46.0,-40.0,-59.0,0.0,0.0,0.0,0.0,0.0,0.0,0.0,0.0,0
5.0,-22.0,-74.0,-59.0,-32.0,-45.0,-42.0,-51.0,0.0,0.0,0.0,0.0,0.0,0.0,0.0,0.0,0
-18.0,-6.0,-65.0,-60.0,-38.0,-39.0,-37.0,-44.0,0.0,0.0,0.0,0.0,0.0,0.0,0.0,0.0,0
-14.0,-2.0,-55.0,-58.0,-41.0,-37.0,-33.0,-34.0,0.0,0.0,0.0,0.0,0.0,0.0,0.0,0.0,0
-5.0,-1.0,-29.0,-51.0,-33.0,-47.0,-33.0,-33.0,0.0,0.0,0.0,0.0,0.0,0.0,0.0,0.0,0
4.0,-6.0,-4.0,-43.0,-42.0,-51.0,-29.0,-27.0,0.0,0.0,0.0,0.0,0.0,0.0,0.0,0.0,0
17.0,-9.0,9.0,-28.0,-48.0,-45.0,-24.0,-27.0,0.0,0.0,0.0,0.0,0.0,0.0,0.0,0.0,0
10.0,-18.0,22.0,-6.0,-45.0,-44.0,-24.0,-23.0,0.0,0.0,0.0,0.0,0.0,0.0,0.0,0.0,0
-21.0,-24.0,35.0,9.0,-32.0,-49.0,-31.0,-19.0,0.0,0.0,0.0,0.0,0.0,0.0,0.0,0.0,0
-35.0,-36.0,26.0,8.0,-20.0,-42.0,-26.0,-13.0,0.0,0.0,0.0,0.0,0.0,0.0,0.0,0.0,0
-47.0,-50.0,5.0,16.0,-9.0,-28.0,-20.0,-9.0,0.0,0.0,0.0,0.0,0.0,0.0,0.0,0.0,0
-91.0,-66.0,-14.0,14.0,-2.0,-32.0,-31.0,-8.0,0.0,0.0,0.0,0.0,0.0,0.0,0.0,0.0,0
-133.0,-60.0,-17.0,23.0,3.0,-39.0,-36.0,-19.0,0.0,0.0,0.0,0.0,0.0,0.0,0.0,0.0,0
-101.0,-53.0,-24.0,7.0,-3.0,-36.0,-37.0,-28.0,0.0,0.0,0.0,0.0,0.0,0.0,0.0,0.0,0
-55.0,-60.0,-30.0,-9.0,-24.0,-42.0,-38.0,-34.0,0.0,0.0,0.0,0.0,0.0,0.0,0.0,0.0,0
-50.0,-54.0,-35.0,-26.0,-31.0,-37.0,-38.0,-40.0,0.0,0.0,0.0,0.0,0.0,0.0,0.0,0.0,0
-47.0,-47.0,-44.0,-43.0,-27.0,-28.0,-39.0,-42.0,0.0,0.0,0.0,0.0,0.0,0.0,0.0,0.0,0
-19.0,-43.0,-43.0,-41.0,-17.0,-21.0,-39.0,-44.0,0.0,0.0,0.0,0.0,0.0,0.0,0.0,0.0,0
-12.0,-49.0,-55.0,-53.0,-16.0,-17.0,-35.0,-47.0,0.0,0.0,0.0,0.0,0.0,0.0,0.0,0.0,0
-2.0,-47.0,-68.0,-60.0,-13.0,-11.0,-42.0,-46.0,0.0,0.0,0.0,0.0,0.0,0.0,0.0,0.0,0
7.0,-52.0,-65.0,-57.0,-12.0,-17.0,-42.0,-52.0,0.0,0.0,0.0,0.0,0.0,0.0,0.0,0.0,0
2.0,-40.0,-51.0,-46.0,-8.0,-21.0,-40.0,-44.0,0.0,0.0,0.0,0.0,0.0,0.0,0.0,0.0,0
-11.0,-22.0,-46.0,-34.0,5.0,-13.0,-33.0,-34.0,0.0,0.0,0.0,0.0,0.0,0.0,0.0,0.0,0
-11.0,-15.0,-50.0,-32.0,9.0,-2.0,-24.0,-29.0,0.0,0.0,0.0,0.0,0.0,0.0,0.0,0.0,0
4.0,-2.0,-34.0,-25.0,4.0,-3.0,-19.0,-29.0,0.0,0.0,0.0,0.0,0.0,0.0,0.0,0.0,0
16.0,22.0,-26.0,-26.0,-14.0,-11.0,-17.0,-33.0,0.0,0.0,0.0,0.0,0.0,0.0,0.0,0.0,0
44.0,42.0,-29.0,-32.0,-22.0,-11.0,-17.0,-31.0,0.0,0.0,0.0,0.0,0.0,0.0,0.0,0.0,0
35.0,43.0,-21.0,-30.0,-32.0,-19.0,-16.0,-28.0,0.0,0.0,0.0,0.0,0.0,0.0,0.0,0.0,0
0.0,54.0,-13.0,-29.0,-35.0,-32.0,-19.0,-27.0,0.0,0.0,0.0,0.0,0.0,0.0,0.0,0.0,0
-27.0,26.0,-16.0,-34.0,-51.0,-42.0,-17.0,-25.0,0.0,0.0,0.0,0.0,0.0,0.0,0.0,0.0,0
-46.0,-7.0,-23.0,-40.0,-67.0,-53.0,-19.0,-26.0,0.0,0.0,0.0,0.0,0.0,0.0,0.0,0.0,0
-75.0,-32.0,-32.0,-36.0,-59.0,-49.0,-24.0,-24.0,0.0,0.0,0.0,0.0,0.0,0.0,0.0,0.0,0
-99.0,-49.0,-35.0,-29.0,-54.0,-45.0,-21.0,-25.0,0.0,0.0,0.0,0.0,0.0,0.0,0.0,0.0,0
-101.0,-68.0,-34.0,-16.0,-36.0,-34.0,-20.0,-25.0,0.0,0.0,0.0,0.0,0.0,0.0,0.0,0.0,0
-98.0,-84.0,-40.0,-15.0,-20.0,-29.0,-21.0,-35.0,0.0,0.0,0.0,0.0,0.0,0.0,0.0,0.0,0
-71.0,-95.0,-51.0,-32.0,-24.0,-35.0,-25.0,-46.0,0.0,0.0,0.0,0.0,0.0,0.0,0.0,0.0,0
-56.0,-96.0,-57.0,-39.0,-25.0,-40.0,-37.0,-52.0,0.0,0.0,0.0,0.0,0.0,0.0,0.0,0.0,0
-30.0,-79.0,-54.0,-33.0,-23.0,-30.0,-43.0,-49.0,0.0,0.0,0.0,0.0,0.0,0.0,0.0,0.0,0
-24.0,-75.0,-60.0,-59.0,-39.0,-27.0,-38.0,-47.0,0.0,0.0,0.0,0.0,0.0,0.0,0.0,0.0,0
-32.0,-63.0,-61.0,-65.0,-50.0,-31.0,-42.0,-46.0,0.0,0.0,0.0,0.0,0.0,0.0,0.0,0.0,0
-10.0,-39.0,-34.0,-36.0,-41.0,-33.0,-42.0,-46.0,0.0,0.0,0.0,0.0,0.0,0.0,0.0,0.0,0
-14.0,-31.0,-21.0,-26.0,-39.0,-30.0,-40.0,-37.0,0.0,0.0,0.0,0.0,0.0,0.0,0.0,0.0,0
-44.0,-15.0,-13.0,-22.0,-42.0,-34.0,-41.0,-30.0,0.0,0.0,0.0,0.0,0.0,0.0,0.0,0.0,0
-23.0,-11.0,-14.0,-11.0,-30.0,-30.0,-34.0,-29.0,0.0,0.0,0.0,0.0,0.0,0.0,0.0,0.0,0
0.0,-10.0,-16.0,-8.0,-37.0,-24.0,-38.0,-31.0,0.0,0.0,0.0,0.0,0.0,0.0,0.0,0.0,0
3.0,6.0,-11.0,-4.0,-38.0,-34.0,-32.0,-29.0,0.0,0.0,0.0,0.0,0.0,0.0,0.0,0.0,0
15.0,17.0,-1.0,-5.0,-38.0,-33.0,-32.0,-26.0,0.0,0.0,0.0,0.0,0.0,0.0,0.0,0.0,0
1.0,-7.0,-8.0,-14.0,-38.0,-30.0,-32.0,-22.0,0.0,0.0,0.0,0.0,0.0,0.0,0.0,0.0,0
-47.0,-38.0,-25.0,-28.0,-37.0,-24.0,-24.0,-20.0,0.0,0.0,0.0,0.0,0.0,0.0,0.0,0.0,0
-73.0,-39.0,-22.0,-17.0,-34.0,-20.0,-22.0,-11.0,0.0,0.0,0.0,0.0,0.0,0.0,0.0,0.0,0
-68.0,-47.0,-40.0,-47.0,-39.0,-32.0,-30.0,-18.0,0.0,0.0,0.0,0.0,0.0,0.0,0.0,0.0,0
-71.0,-55.0,-78.0,-90.0,-66.0,-48.0,-34.0,-23.0,0.0,0.0,0.0,0.0,0.0,0.0,0.0,0.0,0
-84.0,-79.0,-90.0,-98.0,-64.0,-60.0,-41.0,-30.0,0.0,0.0,0.0,0.0,0.0,0.0,0.0,0.0,0
-101.0,-110.0,-107.0,-92.0,-47.0,-64.0,-46.0,-37.0,0.0,0.0,0.0,0.0,0.0,0.0,0.0,0.0,0
-105.0,-117.0,-113.0,-88.0,-34.0,-54.0,-43.0,-40.0,0.0,0.0,0.0,0.0,0.0,0.0,0.0,0.0,0
-77.0,-86.0,-84.0,-71.0,-29.0,-43.0,-35.0,-36.0,0.0,0.0,0.0,0.0,0.0,0.0,0.0,0.0,0
-50.0,-50.0,-43.0,-59.0,-31.0,-47.0,-34.0,-43.0,0.0,0.0,0.0,0.0,0.0,0.0,0.0,0.0,0
-9.0,-21.0,-11.0,-45.0,-26.0,-26.0,-31.0,-59.0,0.0,0.0,0.0,0.0,0.0,0.0,0.0,0.0,0
10.0,2.0,9.0,-38.0,-22.0,-22.0,-32.0,-50.0,0.0,0.0,0.0,0.0,0.0,0.0,0.0,0.0,0
17.0,24.0,24.0,-14.0,-16.0,-23.0,-37.0,-40.0,0.0,0.0,0.0,0.0,0.0,0.0,0.0,0.0,0
26.0,26.0,35.0,11.0,-15.0,-19.0,-35.0,-40.0,0.0,0.0,0.0,0.0,0.0,0.0,0.0,0.0,0
24.0,-5.0,42.0,17.0,-20.0,-16.0,-37.0,-32.0,0.0,0.0,0.0,0.0,0.0,0.0,0.0,0.0,0
11.0,-30.0,45.0,20.0,-28.0,-17.0,-32.0,-27.0,0.0,0.0,0.0,0.0,0.0,0.0,0.0,0.0,0
4.0,-30.0,32.0,21.0,-27.0,-27.0,-38.0,-36.0,0.0,0.0,0.0,0.0,0.0,0.0,0.0,0.0,0
4.0,-11.0,13.0,15.0,-32.0,-35.0,-41.0,-36.0,0.0,0.0,0.0,0.0,0.0,0.0,0.0,0.0,0
-4.0,-10.0,-1.0,-5.0,-38.0,-32.0,-32.0,-33.0,0.0,0.0,0.0,0.0,0.0,0.0,0.0,0.0,0
-2.0,-19.0,-12.0,-17.0,-44.0,-30.0,-29.0,-27.0,0.0,0.0,0.0,0.0,0.0,0.0,0.0,0.0,0
23.0,-12.0,-14.0,-28.0,-41.0,-25.0,-26.0,-23.0,0.0,0.0,0.0,0.0,0.0,0.0,0.0,0.0,0
-7.0,-6.0,-11.0,-24.0,-35.0,-28.0,-21.0,-23.0,0.0,0.0,0.0,0.0,0.0,0.0,0.0,0.0,0
-51.0,-19.0,-13.0,-26.0,-27.0,-32.0,-18.0,-21.0,0.0,0.0,0.0,0.0,0.0,0.0,0.0,0.0,0
-58.0,-35.0,-12.0,-19.0,-14.0,-23.0,-19.0,-23.0,0.0,0.0,0.0,0.0,0.0,0.0,0.0,0.0,0
-74.0,-25.0,-15.0,-6.0,-15.0,-29.0,-21.0,-19.0,0.0,0.0,0.0,0.0,0.0,0.0,0.0,0.0,0
-83.0,-8.0,-17.0,-3.0,-16.0,-32.0,-22.0,-15.0,0.0,0.0,0.0,0.0,0.0,0.0,0.0,0.0,0
-81.0,-10.0,-11.0,-11.0,-18.0,-39.0,-24.0,-23.0,0.0,0.0,0.0,0.0,0.0,0.0,0.0,0.0,0
-64.0,-38.0,-20.0,-34.0,-36.0,-46.0,-32.0,-41.0,0.0,0.0,0.0,0.0,0.0,0.0,0.0,0.0,0
-65.0,-65.0,-38.0,-59.0,-48.0,-50.0,-30.0,-44.0,0.0,0.0,0.0,0.0,0.0,0.0,0.0,0.0,0
-59.0,-79.0,-50.0,-60.0,-39.0,-50.0,-29.0,-48.0,0.0,0.0,0.0,0.0,0.0,0.0,0.0,0.0,0
-33.0,-73.0,-56.0,-66.0,-34.0,-48.0,-34.0,-50.0,0.0,0.0,0.0,0.0,0.0,0.0,0.0,0.0,0
-22.0,-55.0,-63.0,-76.0,-29.0,-51.0,-32.0,-55.0,0.0,0.0,0.0,0.0,0.0,0.0,0.0,0.0,0
-27.0,-47.0,-67.0,-82.0,-30.0,-45.0,-35.0,-55.0,0.0,0.0,0.0,0.0,0.0,0.0,0.0,0.0,0
2.0,-43.0,-61.0,-78.0,-31.0,-36.0,-29.0,-56.0,0.0,0.0,0.0,0.0,0.0,0.0,0.0,0.0,0
17.0,-44.0,-54.0,-78.0,-28.0,-27.0,-25.0,-45.0,0.0,0.0,0.0,0.0,0.0,0.0,0.0,0.0,0
-14.0,-56.0,-50.0,-76.0,-34.0,-22.0,-23.0,-39.0,0.0,0.0,0.0,0.0,0.0,0.0,0.0,0.0,0
-29.0,-68.0,-69.0,-80.0,-50.0,-29.0,-25.0,-29.0,0.0,0.0,0.0,0.0,0.0,0.0,0.0,0.0,0
-32.0,-56.0,-70.0,-82.0,-53.0,-27.0,-35.0,-40.0,0.0,0.0,0.0,0.0,0.0,0.0,0.0,0.0,0
-17.0,-46.0,-61.0,-81.0,-54.0,-32.0,-34.0,-47.0,0.0,0.0,0.0,0.0,0.0,0.0,0.0,0.0,0
5.0,-33.0,-55.0,-76.0,-60.0,-29.0,-36.0,-44.0,0.0,0.0,0.0,0.0,0.0,0.0,0.0,0.0,0
-9.0,-15.0,-54.0,-75.0,-70.0,-29.0,-33.0,-41.0,0.0,0.0,0.0,0.0,0.0,0.0,0.0,0.0,0
-26.0,-20.0,-59.0,-91.0,-71.0,-32.0,-36.0,-48.0,0.0,0.0,0.0,0.0,0.0,0.0,0.0,0.0,0
-25.0,-18.0,-54.0,-82.0,-53.0,-34.0,-43.0,-49.0,0.0,0.0,0.0,0.0,0.0,0.0,0.0,0.0,0
-48.0,-29.0,-36.0,-71.0,-56.0,-34.0,-40.0,-44.0,0.0,0.0,0.0,0.0,0.0,0.0,0.0,0.0,0
-79.0,-40.0,-22.0,-55.0,-50.0,-29.0,-39.0,-40.0,0.0,0.0,0.0,0.0,0.0,0.0,0.0,0.0,0
-93.0,-55.0,-28.0,-50.0,-32.0,-27.0,-31.0,-30.0,0.0,0.0,0.0,0.0,0.0,0.0,0.0,0.0,0
-87.0,-64.0,-26.0,-45.0,-14.0,-23.0,-32.0,-33.0,0.0,0.0,0.0,0.0,0.0,0.0,0.0,0.0,0
-70.0,-56.0,-10.0,-31.0,-13.0,-35.0,-35.0,-38.0,0.0,0.0,0.0,0.0,0.0,0.0,0.0,0.0,0
-49.0,-47.0,0.0,-15.0,-13.0,-45.0,-35.0,-39.0,0.0,0.0,0.0,0.0,0.0,0.0,0.0,0.0,0
-40.0,-38.0,2.0,-3.0,-1.0,-37.0,-37.0,-42.0,0.0,0.0,0.0,0.0,0.0,0.0,0.0,0.0,0
-4.0,-32.0,4.0,15.0,14.0,-33.0,-42.0,-36.0,0.0,0.0,0.0,0.0,0.0,0.0,0.0,0.0,0
9.0,-24.0,-5.0,32.0,34.0,-36.0,-40.0,-29.0,0.0,0.0,0.0,0.0,0.0,0.0,0.0,0.0,0
-8.0,-19.0,-4.0,43.0,45.0,-33.0,-29.0,-25.0,0.0,0.0,0.0,0.0,0.0,0.0,0.0,0.0,0
6.0,-15.0,4.0,63.0,49.0,-23.0,-26.0,-27.0,0.0,0.0,0.0,0.0,0.0,0.0,0.0,0.0,0
11.0,-1.0,18.0,88.0,51.0,-29.0,-24.0,-13.0,0.0,0.0,0.0,0.0,0.0,0.0,0.0,0.0,0
-10.0,4.0,22.0,101.0,41.0,-32.0,-24.0,-9.0,0.0,0.0,0.0,0.0,0.0,0.0,0.0,0.0,0
-33.0,0.0,25.0,94.0,17.0,-32.0,-22.0,-19.0,0.0,0.0,0.0,0.0,0.0,0.0,0.0,0.0,0
-35.0,-8.0,19.0,66.0,-9.0,-39.0,-20.0,-25.0,0.0,0.0,0.0,0.0,0.0,0.0,0.0,0.0,0
-15.0,-14.0,6.0,29.0,-36.0,-38.0,-13.0,-24.0,0.0,0.0,0.0,0.0,0.0,0.0,0.0,0.0,0
-2.0,-15.0,-1.0,-6.0,-73.0,-49.0,-15.0,-32.0,0.0,0.0,0.0,0.0,0.0,0.0,0.0,0.0,0
-22.0,-31.0,-26.0,-41.0,-86.0,-60.0,-24.0,-34.0,0.0,0.0,0.0,0.0,0.0,0.0,0.0,0.0,0
-56.0,-58.0,-52.0,-65.0,-86.0,-63.0,-27.0,-40.0,0.0,0.0,0.0,0.0,0.0,0.0,0.0,0.0,0
-71.0,-71.0,-67.0,-89.0,-91.0,-67.0,-27.0,-47.0,0.0,0.0,0.0,0.0,0.0,0.0,0.0,0.0,0
-70.0,-74.0,-63.0,-82.0,-78.0,-61.0,-27.0,-45.0,0.0,0.0,0.0,0.0,0.0,0.0,0.0,0.0,0
-104.0,-88.0,-73.0,-70.0,-54.0,-48.0,-24.0,-31.0,0.0,0.0,0.0,0.0,0.0,0.0,0.0,0.0,0
-167.0,-90.0,-80.0,-74.0,-50.0,-41.0,-19.0,-28.0,0.0,0.0,0.0,0.0,0.0,0.0,0.0,0.0,0
-131.0,-70.0,-79.0,-93.0,-59.0,-45.0,-22.0,-37.0,0.0,0.0,0.0,0.0,0.0,0.0,0.0,0.0,0
-71.0,-50.0,-69.0,-91.0,-64.0,-45.0,-31.0,-47.0,0.0,0.0,0.0,0.0,0.0,0.0,0.0,0.0,0
-37.0,-34.0,-59.0,-63.0,-50.0,-40.0,-31.0,-53.0,0.0,0.0,0.0,0.0,0.0,0.0,0.0,0.0,0
-35.0,-38.0,-39.0,-40.0,-27.0,-28.0,-26.0,-44.0,0.0,0.0,0.0,0.0,0.0,0.0,0.0,0.0,0
-20.0,-43.0,-22.0,-14.0,-7.0,-23.0,-24.0,-42.0,0.0,0.0,0.0,0.0,0.0,0.0,0.0,0.0,0
-9.0,-31.0,-8.0,3.0,1.0,-28.0,-21.0,-40.0,0.0,0.0,0.0,0.0,0.0,0.0,0.0,0.0,0
-20.0,-20.0,-11.0,-11.0,-5.0,-24.0,-26.0,-33.0,0.0,0.0,0.0,0.0,0.0,0.0,0.0,0.0,0
-32.0,-33.0,-32.0,-40.0,-22.0,-31.0,-34.0,-31.0,0.0,0.0,0.0,0.0,0.0,0.0,0.0,0.0,0
-34.0,-32.0,-19.0,-50.0,-29.0,-39.0,-27.0,-16.0,0.0,0.0,0.0,0.0,0.0,0.0,0.0,0.0,0
-26.0,5.0,-16.0,-61.0,-39.0,-34.0,-28.0,-9.0,0.0,0.0,0.0,0.0,0.0,0.0,0.0,0.0,0
-30.0,4.0,-47.0,-83.0,-45.0,-37.0,-36.0,-15.0,0.0,0.0,0.0,0.0,0.0,0.0,0.0,0.0,0
-72.0,-48.0,-82.0,-108.0,-60.0,-40.0,-47.0,-24.0,0.0,0.0,0.0,0.0,0.0,0.0,0.0,0.0,0
-54.0,-25.0,-74.0,-111.0,-78.0,-45.0,-49.0,-33.0,0.0,0.0,0.0,0.0,0.0,0.0,0.0,0.0,0
24.0,25.0,-62.0,-97.0,-82.0,-50.0,-46.0,-45.0,0.0,0.0,0.0,0.0,0.0,0.0,0.0,0.0,0
25.0,18.0,-63.0,-81.0,-75.0,-38.0,-47.0,-39.0,0.0,0.0,0.0,0.0,0.0,0.0,0.0,0.0,0
-22.0,-23.0,-64.0,-68.0,-64.0,-32.0,-40.0,-27.0,0.0,0.0,0.0,0.0,0.0,0.0,0.0,0.0,0
-52.0,-39.0,-47.0,-45.0,-54.0,-34.0,-42.0,-20.0,0.0,0.0,0.0,0.0,0.0,0.0,0.0,0.0,0
-51.0,-47.0,-42.0,-28.0,-36.0,-29.0,-38.0,-24.0,0.0,0.0,0.0,0.0,0.0,0.0,0.0,0.0,0
-59.0,-52.0,-31.0,-26.0,-20.0,-23.0,-34.0,-18.0,0.0,0.0,0.0,0.0,0.0,0.0,0.0,0.0,0
-87.0,-48.0,-16.0,-23.0,-7.0,-15.0,-25.0,-17.0,0.0,0.0,0.0,0.0,0.0,0.0,0.0,0.0,0
-90.0,-48.0,5.0,-11.0,5.0,-13.0,-23.0,-25.0,0.0,0.0,0.0,0.0,0.0,0.0,0.0,0.0,0
-65.0,-36.0,16.0,5.0,13.0,-15.0,-24.0,-30.0,0.0,0.0,0.0,0.0,0.0,0.0,0.0,0.0,0
-42.0,-25.0,11.0,13.0,14.0,-18.0,-33.0,-34.0,0.0,0.0,0.0,0.0,0.0,0.0,0.0,0.0,0
-42.0,-27.0,-13.0,5.0,2.0,-28.0,-36.0,-40.0,0.0,0.0,0.0,0.0,0.0,0.0,0.0,0.0,0
-20.0,-19.0,-22.0,-3.0,-12.0,-30.0,-38.0,-47.0,0.0,0.0,0.0,0.0,0.0,0.0,0.0,0.0,0
-1.0,-26.0,-23.0,-8.0,-25.0,-31.0,-40.0,-41.0,0.0,0.0,0.0,0.0,0.0,0.0,0.0,0.0,0
-12.0,-59.0,-23.0,-2.0,-33.0,-40.0,-39.0,-41.0,0.0,0.0,0.0,0.0,0.0,0.0,0.0,0.0,0
-8.0,-72.0,-31.0,-11.0,-30.0,-36.0,-40.0,-38.0,0.0,0.0,0.0,0.0,0.0,0.0,0.0,0.0,0
-3.0,-36.0,-32.0,-25.0,-38.0,-31.0,-42.0,-27.0,0.0,0.0,0.0,0.0,0.0,0.0,0.0,0.0,0
-34.0,-6.0,-38.0,-39.0,-58.0,-33.0,-42.0,-22.0,0.0,0.0,0.0,0.0,0.0,0.0,0.0,0.0,0
-48.0,1.0,-50.0,-59.0,-69.0,-38.0,-51.0,-29.0,0.0,0.0,0.0,0.0,0.0,0.0,0.0,0.0,0
-45.0,-6.0,-49.0,-66.0,-70.0,-35.0,-48.0,-31.0,0.0,0.0,0.0,0.0,0.0,0.0,0.0,0.0,0
-20.0,-5.0,-40.0,-69.0,-62.0,-26.0,-34.0,-28.0,0.0,0.0,0.0,0.0,0.0,0.0,0.0,0.0,0
20.0,7.0,-36.0,-68.0,-61.0,-21.0,-36.0,-29.0,0.0,0.0,0.0,0.0,0.0,0.0,0.0,0.0,0
8.0,-2.0,-32.0,-75.0,-61.0,-33.0,-40.0,-21.0,0.0,0.0,0.0,0.0,0.0,0.0,0.0,0.0,0
-28.0,-26.0,-47.0,-77.0,-67.0,-32.0,-38.0,-27.0,0.0,0.0,0.0,0.0,0.0,0.0,0.0,0.0,0
-49.0,-52.0,-48.0,-51.0,-53.0,-30.0,-41.0,-48.0,0.0,0.0,0.0,0.0,0.0,0.0,0.0,0.0,0
-63.0,-63.0,-17.0,-28.0,-31.0,-36.0,-46.0,-43.0,0.0,0.0,0.0,0.0,0.0,0.0,0.0,0.0,0
-52.0,-39.0,5.0,-24.0,-33.0,-50.0,-47.0,-30.0,0.0,0.0,0.0,0.0,0.0,0.0,0.0,0.0,0
-61.0,-41.0,8.0,-12.0,-23.0,-46.0,-47.0,-33.0,0.0,0.0,0.0,0.0,0.0,0.0,0.0,0.0,0
-73.0,-38.0,24.0,-2.0,-8.0,-38.0,-45.0,-27.0,0.0,0.0,0.0,0.0,0.0,0.0,0.0,0.0,0
-55.0,-29.0,28.0,5.0,-4.0,-30.0,-37.0,-28.0,0.0,0.0,0.0,0.0,0.0,0.0,0.0,0.0,0
-95.0,-61.0,6.0,0.0,-1.0,-24.0,-38.0,-30.0,0.0,0.0,0.0,0.0,0.0,0.0,0.0,0.0,0
-82.0,-56.0,-14.0,-14.0,-4.0,-14.0,-37.0,-39.0,0.0,0.0,0.0,0.0,0.0,0.0,0.0,0.0,0
-21.0,-36.0,-23.0,-32.0,-19.0,-30.0,-38.0,-39.0,0.0,0.0,0.0,0.0,0.0,0.0,0.0,0.0,0
-11.0,-24.0,-30.0,-45.0,-36.0,-39.0,-31.0,-36.0,0.0,0.0,0.0,0.0,0.0,0.0,0.0,0.0,0
-14.0,-21.0,-44.0,-79.0,-50.0,-45.0,-36.0,-44.0,0.0,0.0,0.0,0.0,0.0,0.0,0.0,0.0,0
19.0,-17.0,-66.0,-103.0,-62.0,-47.0,-37.0,-48.0,0.0,0.0,0.0,0.0,0.0,0.0,0.0,0.0,0
27.0,-25.0,-88.0,-107.0,-69.0,-48.0,-45.0,-51.0,0.0,0.0,0.0,0.0,0.0,0.0,0.0,0.0,0
10.0,-35.0,-90.0,-119.0,-77.0,-47.0,-49.0,-45.0,0.0,0.0,0.0,0.0,0.0,0.0,0.0,0.0,0
19.0,-31.0,-70.0,-103.0,-71.0,-45.0,-46.0,-46.0,0.0,0.0,0.0,0.0,0.0,0.0,0.0,0.0,0
16.0,-33.0,-53.0,-73.0,-51.0,-36.0,-37.0,-43.0,0.0,0.0,0.0,0.0,0.0,0.0,0.0,0.0,0
-1.0,-28.0,-35.0,-36.0,-37.0,-29.0,-29.0,-35.0,0.0,0.0,0.0,0.0,0.0,0.0,0.0,0.0,0
6.0,-23.0,-18.0,2.0,-8.0,-10.0,-23.0,-31.0,0.0,0.0,0.0,0.0,0.0,0.0,0.0,0.0,0
19.0,-9.0,6.0,55.0,28.0,1.0,-26.0,-23.0,0.0,0.0,0.0,0.0,0.0,0.0,0.0,0.0,0
13.0,2.0,31.0,102.0,47.0,11.0,-18.0,-12.0,0.0,0.0,0.0,0.0,0.0,0.0,0.0,0.0,0
-5.0,-4.0,59.0,124.0,48.0,13.0,-9.0,2.0,0.0,0.0,0.0,0.0,0.0,0.0,0.0,0.0,0
-45.0,-33.0,64.0,125.0,56.0,11.0,-12.0,-4.0,0.0,0.0,0.0,0.0,0.0,0.0,0.0,0.0,0
-101.0,-62.0,68.0,129.0,54.0,1.0,-23.0,-4.0,0.0,0.0,0.0,0.0,0.0,0.0,0.0,0.0,0
-111.0,-55.0,60.0,103.0,36.0,-10.0,-31.0,-5.0,0.0,0.0,0.0,0.0,0.0,0.0,0.0,0.0,0
-94.0,-38.0,43.0,66.0,24.0,-26.0,-29.0,-12.0,0.0,0.0,0.0,0.0,0.0,0.0,0.0,0.0,0
-78.0,-34.0,23.0,28.0,8.0,-44.0,-31.0,-16.0,0.0,0.0,0.0,0.0,0.0,0.0,0.0,0.0,0
-63.0,-36.0,-19.0,-19.0,-19.0,-51.0,-41.0,-23.0,0.0,0.0,0.0,0.0,0.0,0.0,0.0,0.0,0
-53.0,-37.0,-66.0,-64.0,-44.0,-53.0,-49.0,-34.0,0.0,0.0,0.0,0.0,0.0,0.0,0.0,0.0,0
-43.0,-55.0,-98.0,-100.0,-68.0,-63.0,-42.0,-39.0,0.0,0.0,0.0,0.0,0.0,0.0,0.0,0.0,0
-24.0,-67.0,-118.0,-106.0,-68.0,-65.0,-35.0,-42.0,0.0,0.0,0.0,0.0,0.0,0.0,0.0,0.0,0
-16.0,-66.0,-116.0,-96.0,-67.0,-57.0,-29.0,-37.0,0.0,0.0,0.0,0.0,0.0,0.0,0.0,0.0,0
-3.0,-55.0,-111.0,-109.0,-89.0,-68.0,-32.0,-37.0,0.0,0.0,0.0,0.0,0.0,0.0,0.0,0.0,0
2.0,-41.0,-98.0,-116.0,-104.0,-82.0,-43.0,-37.0,0.0,0.0,0.0,0.0,0.0,0.0,0.0,0.0,0
-36.0,-25.0,-97.0,-119.0,-104.0,-81.0,-43.0,-40.0,0.0,0.0,0.0,0.0,0.0,0.0,0.0,0.0,0
-34.0,-24.0,-96.0,-114.0,-98.0,-68.0,-46.0,-30.0,0.0,0.0,0.0,0.0,0.0,0.0,0.0,0.0,0
-22.0,-42.0,-105.0,-110.0,-93.0,-57.0,-43.0,-30.0,0.0,0.0,0.0,0.0,0.0,0.0,0.0,0.0,0
-30.0,-57.0,-117.0,-107.0,-97.0,-47.0,-49.0,-43.0,0.0,0.0,0.0,0.0,0.0,0.0,0.0,0.0,0
2.0,-54.0,-105.0,-101.0,-98.0,-47.0,-52.0,-42.0,0.0,0.0,0.0,0.0,0.0,0.0,0.0,0.0,0
18.0,-64.0,-86.0,-64.0,-78.0,-35.0,-45.0,-36.0,0.0,0.0,0.0,0.0,0.0,0.0,0.0,0.0,0
0.0,-69.0,-60.0,-51.0,-76.0,-40.0,-44.0,-32.0,0.0,0.0,0.0,0.0,0.0,0.0,0.0,0.0,0
-27.0,-50.0,-31.0,-43.0,-66.0,-47.0,-48.0,-33.0,0.0,0.0,0.0,0.0,0.0,0.0,0.0,0.0,0
-65.0,-44.0,-10.0,-17.0,-45.0,-35.0,-50.0,-30.0,0.0,0.0,0.0,0.0,0.0,0.0,0.0,0.0,0
-108.0,-55.0,4.0,-5.0,-26.0,-27.0,-48.0,-21.0,0.0,0.0,0.0,0.0,0.0,0.0,0.0,0.0,0
-128.0,-48.0,9.0,-8.0,-21.0,-27.0,-48.0,-20.0,0.0,0.0,0.0,0.0,0.0,0.0,0.0,0.0,0
-108.0,-33.0,11.0,-5.0,-13.0,-33.0,-41.0,-32.0,0.0,0.0,0.0,0.0,0.0,0.0,0.0,0.0,0
-84.0,-20.0,17.0,-11.0,-17.0,-33.0,-41.0,-39.0,0.0,0.0,0.0,0.0,0.0,0.0,0.0,0.0,0
-65.0,-19.0,13.0,-16.0,-19.0,-36.0,-37.0,-37.0,0.0,0.0,0.0,0.0,0.0,0.0,0.0,0.0,0
-49.0,-6.0,8.0,-11.0,-16.0,-43.0,-34.0,-36.0,0.0,0.0,0.0,0.0,0.0,0.0,0.0,0.0,0
-34.0,-1.0,1.0,-15.0,-20.0,-37.0,-22.0,-40.0,0.0,0.0,0.0,0.0,0.0,0.0,0.0,0.0,0
-17.0,-1.0,-1.0,-12.0,-20.0,-32.0,-34.0,-42.0,0.0,0.0,0.0,0.0,0.0,0.0,0.0,0.0,0
7.0,2.0,-10.0,-15.0,-14.0,-24.0,-29.0,-38.0,0.0,0.0,0.0,0.0,0.0,0.0,0.0,0.0,0
8.0,-1.0,-30.0,-33.0,-25.0,-21.0,-26.0,-39.0,0.0,0.0,0.0,0.0,0.0,0.0,0.0,0.0,0
-28.0,-15.0,-37.0,-41.0,-31.0,-24.0,-28.0,-38.0,0.0,0.0,0.0,0.0,0.0,0.0,0.0,0.0,0
-24.0,-8.0,-54.0,-52.0,-33.0,-20.0,-33.0,-33.0,0.0,0.0,0.0,0.0,0.0,0.0,0.0,0.0,0
-16.0,-7.0,-60.0,-59.0,-39.0,-21.0,-43.0,-32.0,0.0,0.0,0.0,0.0,0.0,0.0,0.0,0.0,0
-42.0,-4.0,-54.0,-60.0,-44.0,-17.0,-40.0,-38.0,0.0,0.0,0.0,0.0,0.0,0.0,0.0,0.0,0
1.0,-7.0,-50.0,-57.0,-48.0,-17.0,-40.0,-47.0,0.0,0.0,0.0,0.0,0.0,0.0,0.0,0.0,0
62.0,-12.0,-35.0,-51.0,-52.0,-8.0,-40.0,-46.0,0.0,0.0,0.0,0.0,0.0,0.0,0.0,0.0,0
39.0,-30.0,-32.0,-57.0,-41.0,-5.0,-41.0,-42.0,0.0,0.0,0.0,0.0,0.0,0.0,0.0,0.0,0
-21.0,-44.0,-44.0,-55.0,-44.0,-22.0,-41.0,-43.0,0.0,0.0,0.0,0.0,0.0,0.0,0.0,0.0,0
-25.0,-27.0,-18.0,-41.0,-39.0,-21.0,-38.0,-37.0,0.0,0.0,0.0,0.0,0.0,0.0,0.0,0.0,0
-37.0,-2.0,10.0,-28.0,-25.0,-17.0,-34.0,-24.0,0.0,0.0,0.0,0.0,0.0,0.0,0.0,0.0,0
-48.0,3.0,13.0,-12.0,-17.0,-19.0,-24.0,-16.0,0.0,0.0,0.0,0.0,0.0,0.0,0.0,0.0,0
-81.0,-2.0,10.0,-9.0,-10.0,-18.0,-22.0,-17.0,0.0,0.0,0.0,0.0,0.0,0.0,0.0,0.0,0
-93.0,-12.0,11.0,-6.0,-9.0,-21.0,-22.0,-15.0,0.0,0.0,0.0,0.0,0.0,0.0,0.0,0.0,0
-72.0,-19.0,10.0,-8.0,0.0,-20.0,-19.0,-18.0,0.0,0.0,0.0,0.0,0.0,0.0,0.0,0.0,0
-42.0,-31.0,7.0,-21.0,-5.0,-27.0,-9.0,-18.0,0.0,0.0,0.0,0.0,0.0,0.0,0.0,0.0,0
-50.0,-40.0,0.0,-6.0,4.0,-29.0,-7.0,-21.0,0.0,0.0,0.0,0.0,0.0,0.0,0.0,0.0,0
-49.0,-21.0,-2.0,-1.0,-3.0,-32.0,-19.0,-30.0,0.0,0.0,0.0,0.0,0.0,0.0,0.0,0.0,0
-6.0,0.0,-5.0,-9.0,-18.0,-38.0,-22.0,-31.0,0.0,0.0,0.0,0.0,0.0,0.0,0.0,0.0,0
21.0,15.0,-12.0,-4.0,-11.0,-42.0,-18.0,-33.0,0.0,0.0,0.0,0.0,0.0,0.0,0.0,0.0,0
21.0,12.0,-6.0,14.0,5.0,-37.0,-22.0,-27.0,0.0,0.0,0.0,0.0,0.0,0.0,0.0,0.0,0
-7.0,-38.0,-8.0,29.0,17.0,-29.0,-27.0,-23.0,0.0,0.0,0.0,0.0,0.0,0.0,0.0,0.0,0
-25.0,-77.0,-22.0,17.0,5.0,-29.0,-33.0,-25.0,0.0,0.0,0.0,0.0,0.0,0.0,0.0,0.0,0
-15.0,-61.0,-37.0,-21.0,-11.0,-32.0,-42.0,-30.0,0.0,0.0,0.0,0.0,0.0,0.0,0.0,0.0,0
-34.0,-72.0,-68.0,-53.0,-27.0,-35.0,-47.0,-36.0,0.0,0.0,0.0,0.0,0.0,0.0,0.0,0.0,0
-62.0,-93.0,-87.0,-60.0,-23.0,-23.0,-40.0,-35.0,0.0,0.0,0.0,0.0,0.0,0.0,0.0,0.0,0
-43.0,-85.0,-76.0,-59.0,-19.0,-9.0,-34.0,-35.0,0.0,0.0,0.0,0.0,0.0,0.0,0.0,0.0,0
0.0,-54.0,-62.0,-70.0,-28.0,-9.0,-30.0,-20.0,0.0,0.0,0.0,0.0,0.0,0.0,0.0,0.0,0
-25.0,-57.0,-57.0,-77.0,-41.0,-14.0,-30.0,-21.0,0.0,0.0,0.0,0.0,0.0,0.0,0.0,0.0,0
-72.0,-60.0,-54.0,-80.0,-52.0,-23.0,-26.0,-23.0,0.0,0.0,0.0,0.0,0.0,0.0,0.0,0.0,0
-89.0,-44.0,-56.0,-104.0,-73.0,-30.0,-39.0,-30.0,0.0,0.0,0.0,0.0,0.0,0.0,0.0,0.0,0
-92.0,-69.0,-83.0,-130.0,-95.0,-42.0,-46.0,-44.0,0.0,0.0,0.0,0.0,0.0,0.0,0.0,0.0,0
-81.0,-59.0,-90.0,-124.0,-87.0,-57.0,-46.0,-42.0,0.0,0.0,0.0,0.0,0.0,0.0,0.0,0.0,0
-50.0,-34.0,-75.0,-133.0,-95.0,-71.0,-47.0,-36.0,0.0,0.0,0.0,0.0,0.0,0.0,0.0,0.0,0
-50.0,-25.0,-80.0,-157.0,-100.0,-77.0,-44.0,-51.0,0.0,0.0,0.0,0.0,0.0,0.0,0.0,0.0,0
-53.0,-28.0,-80.0,-160.0,-92.0,-71.0,-43.0,-52.0,0.0,0.0,0.0,0.0,0.0,0.0,0.0,0.0,0
-50.0,-34.0,-79.0,-149.0,-83.0,-61.0,-46.0,-52.0,0.0,0.0,0.0,0.0,0.0,0.0,0.0,0.0,0
-20.0,-29.0,-77.0,-128.0,-72.0,-53.0,-45.0,-57.0,0.0,0.0,0.0,0.0,0.0,0.0,0.0,0.0,0
-8.0,-34.0,-63.0,-98.0,-59.0,-51.0,-37.0,-52.0,0.0,0.0,0.0,0.0,0.0,0.0,0.0,0.0,0
-5.0,-34.0,-37.0,-46.0,-43.0,-55.0,-33.0,-45.0,0.0,0.0,0.0,0.0,0.0,0.0,0.0,0.0,0
16.0,-21.0,-10.0,9.0,-19.0,-37.0,-28.0,-31.0,0.0,0.0,0.0,0.0,0.0,0.0,0.0,0.0,0
13.0,-14.0,17.0,69.0,15.0,-19.0,-28.0,-21.0,0.0,0.0,0.0,0.0,0.0,0.0,0.0,0.0,0
-19.0,-3.0,50.0,114.0,41.0,-4.0,-27.0,-12.0,0.0,0.0,0.0,0.0,0.0,0.0,0.0,0.0,0
-21.0,13.0,68.0,141.0,64.0,2.0,-26.0,-12.0,0.0,0.0,0.0,0.0,0.0,0.0,0.0,0.0,0
-14.0,36.0,72.0,154.0,63.0,0.0,-33.0,-21.0,0.0,0.0,0.0,0.0,0.0,0.0,0.0,0.0,0
-1.0,55.0,91.0,156.0,64.0,10.0,-32.0,-22.0,0.0,0.0,0.0,0.0,0.0,0.0,0.0,0.0,0
23.0,55.0,95.0,156.0,68.0,17.0,-25.0,-16.0,0.0,0.0,0.0,0.0,0.0,0.0,0.0,0.0,0
27.0,25.0,73.0,135.0,62.0,23.0,-20.0,-12.0,0.0,0.0,0.0,0.0,0.0,0.0,0.0,0.0,0
-15.0,-30.0,29.0,83.0,33.0,16.0,-19.0,-16.0,0.0,0.0,0.0,0.0,0.0,0.0,0.0,0.0,0
-51.0,-71.0,-21.0,8.0,-19.0,-5.0,-21.0,-20.0,0.0,0.0,0.0,0.0,0.0,0.0,0.0,0.0,0
-57.0,-70.0,-44.0,-44.0,-55.0,-15.0,-22.0,-24.0,0.0,0.0,0.0,0.0,0.0,0.0,0.0,0.0,0
-67.0,-58.0,-55.0,-74.0,-69.0,-25.0,-26.0,-24.0,0.0,0.0,0.0,0.0,0.0,0.0,0.0,0.0,0
-90.0,-48.0,-66.0,-104.0,-82.0,-46.0,-32.0,-27.0,0.0,0.0,0.0,0.0,0.0,0.0,0.0,0.0,0
-100.0,-46.0,-97.0,-136.0,-93.0,-58.0,-38.0,-33.0,0.0,0.0,0.0,0.0,0.0,0.0,0.0,0.0,0
-85.0,-50.0,-112.0,-157.0,-94.0,-60.0,-44.0,-45.0,0.0,0.0,0.0,0.0,0.0,0.0,0.0,0.0,0
-71.0,-61.0,-123.0,-173.0,-101.0,-64.0,-41.0,-50.0,0.0,0.0,0.0,0.0,0.0,0.0,0.0,0.0,0
-73.0,-75.0,-132.0,-166.0,-85.0,-68.0,-40.0,-47.0,0.0,0.0,0.0,0.0,0.0,0.0,0.0,0.0,0
-29.0,-77.0,-124.0,-147.0,-81.0,-62.0,-46.0,-50.0,0.0,0.0,0.0,0.0,0.0,0.0,0.0,0.0,0
-8.0,-74.0,-118.0,-151.0,-88.0,-59.0,-50.0,-49.0,0.0,0.0,0.0,0.0,0.0,0.0,0.0,0.0,0
-45.0,-77.0,-118.0,-148.0,-94.0,-67.0,-47.0,-48.0,0.0,0.0,0.0,0.0,0.0,0.0,0.0,0.0,0
-40.0,-64.0,-114.0,-139.0,-95.0,-64.0,-48.0,-55.0,0.0,0.0,0.0,0.0,0.0,0.0,0.0,0.0,0
7.0,-61.0,-116.0,-133.0,-93.0,-66.0,-49.0,-45.0,0.0,0.0,0.0,0.0,0.0,0.0,0.0,0.0,0
-3.0,-63.0,-107.0,-115.0,-91.0,-59.0,-47.0,-31.0,0.0,0.0,0.0,0.0,0.0,0.0,0.0,0.0,0
-6.0,-53.0,-77.0,-94.0,-75.0,-50.0,-35.0,-23.0,0.0,0.0,0.0,0.0,0.0,0.0,0.0,0.0,0
4.0,-42.0,-50.0,-73.0,-52.0,-35.0,-35.0,-27.0,0.0,0.0,0.0,0.0,0.0,0.0,0.0,0.0,0
27.0,-20.0,-19.0,-37.0,-23.0,-26.0,-28.0,-30.0,0.0,0.0,0.0,0.0,0.0,0.0,0.0,0.0,0
64.0,-1.0,17.0,7.0,-3.0,-17.0,-16.0,-29.0,0.0,0.0,0.0,0.0,0.0,0.0,0.0,0.0,0
41.0,-13.0,14.0,18.0,11.0,-9.0,-15.0,-33.0,0.0,0.0,0.0,0.0,0.0,0.0,0.0,0.0,0
-12.0,-6.0,9.0,24.0,22.0,-3.0,-19.0,-34.0,0.0,0.0,0.0,0.0,0.0,0.0,0.0,0.0,0
-29.0,-17.0,3.0,39.0,34.0,0.0,-15.0,-42.0,0.0,0.0,0.0,0.0,0.0,0.0,0.0,0.0,0
-65.0,-28.0,7.0,60.0,44.0,-3.0,-10.0,-41.0,0.0,0.0,0.0,0.0,0.0,0.0,0.0,0.0,0
-69.0,-10.0,42.0,96.0,54.0,5.0,-7.0,-32.0,0.0,0.0,0.0,0.0,0.0,0.0,0.0,0.0,0
-77.0,7.0,58.0,109.0,50.0,5.0,-9.0,-15.0,0.0,0.0,0.0,0.0,0.0,0.0,0.0,0.0,0
-88.0,5.0,47.0,88.0,30.0,-14.0,-12.0,-17.0,0.0,0.0,0.0,0.0,0.0,0.0,0.0,0.0,0
-85.0,1.0,35.0,54.0,7.0,-29.0,-17.0,-30.0,0.0,0.0,0.0,0.0,0.0,0.0,0.0,0.0,0
-48.0,-6.0,23.0,32.0,-9.0,-29.0,-21.0,-33.0,0.0,0.0,0.0,0.0,0.0,0.0,0.0,0.0,0
-43.0,-25.0,4.0,12.0,-24.0,-32.0,-29.0,-27.0,0.0,0.0,0.0,0.0,0.0,0.0,0.0,0.0,0
-31.0,-35.0,-19.0,-13.0,-51.0,-41.0,-39.0,-41.0,0.0,0.0,0.0,0.0,0.0,0.0,0.0,0.0,0
-20.0,-40.0,-38.0,-33.0,-70.0,-46.0,-44.0,-46.0,0.0,0.0,0.0,0.0,0.0,0.0,0.0,0.0,0
-25.0,-50.0,-45.0,-43.0,-72.0,-54.0,-44.0,-39.0,0.0,0.0,0.0,0.0,0.0,0.0,0.0,0.0,0
-9.0,-53.0,-51.0,-44.0,-60.0,-62.0,-55.0,-38.0,0.0,0.0,0.0,0.0,0.0,0.0,0.0,0.0,0
-3.0,-33.0,-54.0,-43.0,-58.0,-57.0,-62.0,-39.0,0.0,0.0,0.0,0.0,0.0,0.0,0.0,0.0,0
-29.0,-15.0,-54.0,-39.0,-52.0,-40.0,-48.0,-35.0,0.0,0.0,0.0,0.0,0.0,0.0,0.0,0.0,0
-19.0,-10.0,-55.0,-38.0,-38.0,-32.0,-43.0,-38.0,0.0,0.0,0.0,0.0,0.0,0.0,0.0,0.0,0
5.0,-8.0,-43.0,-24.0,-21.0,-32.0,-40.0,-28.0,0.0,0.0,0.0,0.0,0.0,0.0,0.0,0.0,0
-8.0,-28.0,-47.0,-37.0,-42.0,-29.0,-36.0,-31.0,0.0,0.0,0.0,0.0,0.0,0.0,0.0,0.0,0
10.0,-45.0,-52.0,-39.0,-46.0,-29.0,-36.0,-51.0,0.0,0.0,0.0,0.0,0.0,0.0,0.0,0.0,0
29.0,-45.0,-39.0,-44.0,-42.0,-11.0,-38.0,-63.0,0.0,0.0,0.0,0.0,0.0,0.0,0.0,0.0,0
20.0,-26.0,-23.0,-45.0,-54.0,-13.0,-33.0,-46.0,0.0,0.0,0.0,0.0,0.0,0.0,0.0,0.0,0
-2.0,-12.0,-22.0,-47.0,-62.0,-17.0,-29.0,-42.0,0.0,0.0,0.0,0.0,0.0,0.0,0.0,0.0,0
-7.0,-15.0,-16.0,-38.0,-52.0,-24.0,-30.0,-47.0,0.0,0.0,0.0,0.0,0.0,0.0,0.0,0.0,0
-28.0,-28.0,-25.0,-51.0,-58.0,-34.0,-30.0,-43.0,0.0,0.0,0.0,0.0,0.0,0.0,0.0,0.0,0
-86.0,-24.0,-30.0,-67.0,-60.0,-36.0,-30.0,-39.0,0.0,0.0,0.0,0.0,0.0,0.0,0.0,0.0,0
-118.0,-23.0,-34.0,-69.0,-58.0,-40.0,-27.0,-41.0,0.0,0.0,0.0,0.0,0.0,0.0,0.0,0.0,0
-111.0,-43.0,-45.0,-79.0,-62.0,-47.0,-29.0,-43.0,0.0,0.0,0.0,0.0,0.0,0.0,0.0,0.0,0
-92.0,-58.0,-60.0,-85.0,-65.0,-49.0,-35.0,-45.0,0.0,0.0,0.0,0.0,0.0,0.0,0.0,0.0,0
-84.0,-67.0,-77.0,-87.0,-61.0,-53.0,-38.0,-52.0,0.0,0.0,0.0,0.0,0.0,0.0,0.0,0.0,0
-67.0,-64.0,-76.0,-72.0,-45.0,-52.0,-26.0,-56.0,0.0,0.0,0.0,0.0,0.0,0.0,0.0,0.0,0
-43.0,-59.0,-57.0,-59.0,-35.0,-45.0,-20.0,-49.0,0.0,0.0,0.0,0.0,0.0,0.0,0.0,0.0,0
-46.0,-55.0,-50.0,-53.0,-40.0,-48.0,-30.0,-41.0,0.0,0.0,0.0,0.0,0.0,0.0,0.0,0.0,0
-18.0,-41.0,-47.0,-46.0,-42.0,-46.0,-33.0,-44.0,0.0,0.0,0.0,0.0,0.0,0.0,0.0,0.0,0
-3.0,-39.0,-46.0,-45.0,-40.0,-45.0,-39.0,-39.0,0.0,0.0,0.0,0.0,0.0,0.0,0.0,0.0,0
-30.0,-47.0,-43.0,-52.0,-36.0,-50.0,-47.0,-21.0,0.0,0.0,0.0,0.0,0.0,0.0,0.0,0.0,0
-45.0,-41.0,-32.0,-45.0,-29.0,-39.0,-30.0,-18.0,0.0,0.0,0.0,0.0,0.0,0.0,0.0,0.0,0
-31.0,-31.0,-27.0,-43.0,-28.0,-24.0,-20.0,-15.0,0.0,0.0,0.0,0.0,0.0,0.0,0.0,0.0,0
-27.0,-28.0,-12.0,-43.0,-25.0,-16.0,-16.0,-16.0,0.0,0.0,0.0,0.0,0.0,0.0,0.0,0.0,0
5.0,-28.0,-3.0,-45.0,-12.0,-6.0,-18.0,-25.0,0.0,0.0,0.0,0.0,0.0,0.0,0.0,0.0,0
15.0,-30.0,-8.0,-31.0,-14.0,-10.0,-14.0,-25.0,0.0,0.0,0.0,0.0,0.0,0.0,0.0,0.0,0
-19.0,-32.0,-31.0,-23.0,-25.0,-12.0,-23.0,-26.0,0.0,0.0,0.0,0.0,0.0,0.0,0.0,0.0,0
-26.0,-29.0,-32.0,-10.0,-8.0,-12.0,-23.0,-31.0,0.0,0.0,0.0,0.0,0.0,0.0,0.0,0.0,0
-12.0,-34.0,-25.0,15.0,5.0,-13.0,-16.0,-33.0,0.0,0.0,0.0,0.0,0.0,0.0,0.0,0.0,0
-27.0,-41.0,-9.0,38.0,14.0,-5.0,-7.0,-22.0,0.0,0.0,0.0,0.0,0.0,0.0,0.0,0.0,0
-57.0,-34.0,3.0,52.0,26.0,-11.0,-9.0,-12.0,0.0,0.0,0.0,0.0,0.0,0.0,0.0,0.0,0
-77.0,-25.0,10.0,56.0,24.0,-20.0,-16.0,-9.0,0.0,0.0,0.0,0.0,0.0,0.0,0.0,0.0,0
-76.0,-7.0,21.0,37.0,10.0,-28.0,-16.0,-20.0,0.0,0.0,0.0,0.0,0.0,0.0,0.0,0.0,0
-70.0,13.0,23.0,20.0,-10.0,-40.0,-20.0,-28.0,0.0,0.0,0.0,0.0,0.0,0.0,0.0,0.0,0
-61.0,30.0,26.0,14.0,-22.0,-43.0,-21.0,-29.0,0.0,0.0,0.0,0.0,0.0,0.0,0.0,0.0,0
-20.0,22.0,12.0,10.0,-35.0,-43.0,-28.0,-32.0,0.0,0.0,0.0,0.0,0.0,0.0,0.0,0.0,0
1.0,-11.0,-1.0,2.0,-41.0,-46.0,-28.0,-30.0,0.0,0.0,0.0,0.0,0.0,0.0,0.0,0.0,0
-18.0,-29.0,-2.0,-10.0,-41.0,-51.0,-35.0,-27.0,0.0,0.0,0.0,0.0,0.0,0.0,0.0,0.0,0
-4.0,-4.0,3.0,-14.0,-36.0,-53.0,-38.0,-34.0,0.0,0.0,0.0,0.0,0.0,0.0,0.0,0.0,0
20.0,-17.0,-11.0,-33.0,-46.0,-57.0,-42.0,-35.0,0.0,0.0,0.0,0.0,0.0,0.0,0.0,0.0,0
-24.0,-42.0,-44.0,-61.0,-48.0,-53.0,-46.0,-24.0,0.0,0.0,0.0,0.0,0.0,0.0,0.0,0.0,0
-31.0,-62.0,-62.0,-65.0,-39.0,-43.0,-48.0,-24.0,0.0,0.0,0.0,0.0,0.0,0.0,0.0,0.0,0
-5.0,-76.0,-75.0,-62.0,-31.0,-37.0,-46.0,-20.0,0.0,0.0,0.0,0.0,0.0,0.0,0.0,0.0,0
-9.0,-72.0,-80.0,-64.0,-25.0,-31.0,-46.0,-26.0,0.0,0.0,0.0,0.0,0.0,0.0,0.0,0.0,0
-17.0,-75.0,-77.0,-57.0,-31.0,-21.0,-50.0,-42.0,0.0,0.0,0.0,0.0,0.0,0.0,0.0,0.0,0
-19.0,-71.0,-63.0,-50.0,-36.0,-25.0,-53.0,-39.0,0.0,0.0,0.0,0.0,0.0,0.0,0.0,0.0,0
-9.0,-61.0,-73.0,-62.0,-55.0,-32.0,-46.0,-35.0,0.0,0.0,0.0,0.0,0.0,0.0,0.0,0.0,0
-24.0,-57.0,-73.0,-71.0,-74.0,-38.0,-44.0,-38.0,0.0,0.0,0.0,0.0,0.0,0.0,0.0,0.0,0
-41.0,-55.0,-60.0,-67.0,-67.0,-34.0,-34.0,-36.0,0.0,0.0,0.0,0.0,0.0,0.0,0.0,0.0,0
-45.0,-55.0,-60.0,-48.0,-49.0,-30.0,-28.0,-30.0,0.0,0.0,0.0,0.0,0.0,0.0,0.0,0.0,0
-66.0,-50.0,-53.0,-29.0,-27.0,-18.0,-18.0,-23.0,0.0,0.0,0.0,0.0,0.0,0.0,0.0,0.0,0
-74.0,-40.0,-49.0,-24.0,-10.0,-4.0,-15.0,-25.0,0.0,0.0,0.0,0.0,0.0,0.0,0.0,0.0,0
-102.0,-53.0,-55.0,-39.0,-18.0,-7.0,-18.0,-33.0,0.0,0.0,0.0,0.0,0.0,0.0,0.0,0.0,0
-104.0,-67.0,-50.0,-45.0,-20.0,-21.0,-21.0,-35.0,0.0,0.0,0.0,0.0,0.0,0.0,0.0,0.0,0
-76.0,-62.0,-55.0,-53.0,-35.0,-28.0,-28.0,-39.0,0.0,0.0,0.0,0.0,0.0,0.0,0.0,0.0,0
-39.0,-49.0,-52.0,-53.0,-42.0,-21.0,-29.0,-44.0,0.0,0.0,0.0,0.0,0.0,0.0,0.0,0.0,0
-11.0,-49.0,-53.0,-61.0,-33.0,-12.0,-27.0,-41.0,0.0,0.0,0.0,0.0,0.0,0.0,0.0,0.0,0
-16.0,-67.0,-74.0,-86.0,-55.0,-24.0,-36.0,-39.0,0.0,0.0,0.0,0.0,0.0,0.0,0.0,0.0,0
-37.0,-79.0,-73.0,-94.0,-78.0,-37.0,-45.0,-46.0,0.0,0.0,0.0,0.0,0.0,0.0,0.0,0.0,0
-29.0,-71.0,-72.0,-110.0,-94.0,-52.0,-46.0,-42.0,0.0,0.0,0.0,0.0,0.0,0.0,0.0,0.0,0
-26.0,-49.0,-59.0,-110.0,-98.0,-55.0,-49.0,-43.0,0.0,0.0,0.0,0.0,0.0,0.0,0.0,0.0,0
-20.0,-30.0,-48.0,-97.0,-82.0,-56.0,-52.0,-44.0,0.0,0.0,0.0,0.0,0.0,0.0,0.0,0.0,0
-13.0,-17.0,-33.0,-87.0,-71.0,-45.0,-46.0,-50.0,0.0,0.0,0.0,0.0,0.0,0.0,0.0,0.0,0
-20.0,-23.0,-33.0,-74.0,-59.0,-37.0,-45.0,-47.0,0.0,0.0,0.0,0.0,0.0,0.0,0.0,0.0,0
-13.0,-25.0,-42.0,-56.0,-53.0,-32.0,-36.0,-50.0,0.0,0.0,0.0,0.0,0.0,0.0,0.0,0.0,0
-5.0,-5.0,-29.0,-41.0,-38.0,-23.0,-28.0,-46.0,0.0,0.0,0.0,0.0,0.0,0.0,0.0,0.0,0
-6.0,3.0,-32.0,-41.0,-38.0,-24.0,-33.0,-41.0,0.0,0.0,0.0,0.0,0.0,0.0,0.0,0.0,0
-12.0,-4.0,-39.0,-40.0,-33.0,-20.0,-34.0,-28.0,0.0,0.0,0.0,0.0,0.0,0.0,0.0,0.0,0
-25.0,-4.0,-29.0,-21.0,-23.0,-23.0,-24.0,-24.0,0.0,0.0,0.0,0.0,0.0,0.0,0.0,0.0,0
-33.0,3.0,-1.0,11.0,-18.0,-21.0,-23.0,-15.0,0.0,0.0,0.0,0.0,0.0,0.0,0.0,0.0,0
-51.0,1.0,19.0,31.0,-18.0,-21.0,-32.0,-9.0,0.0,0.0,0.0,0.0,0.0,0.0,0.0,0.0,0
-57.0,16.0,40.0,44.0,-19.0,-21.0,-25.0,-13.0,0.0,0.0,0.0,0.0,0.0,0.0,0.0,0.0,0
-48.0,22.0,57.0,55.0,-11.0,-28.0,-28.0,-20.0,0.0,0.0,0.0,0.0,0.0,0.0,0.0,0.0,0
-40.0,2.0,68.0,59.0,3.0,-31.0,-37.0,-22.0,0.0,0.0,0.0,0.0,0.0,0.0,0.0,0.0,0
-61.0,-31.0,58.0,50.0,14.0,-33.0,-30.0,-21.0,0.0,0.0,0.0,0.0,0.0,0.0,0.0,0.0,0
-51.0,-27.0,32.0,32.0,7.0,-34.0,-29.0,-23.0,0.0,0.0,0.0,0.0,0.0,0.0,0.0,0.0,0
-31.0,-3.0,6.0,4.0,-13.0,-42.0,-34.0,-38.0,0.0,0.0,0.0,0.0,0.0,0.0,0.0,0.0,0
-19.0,4.0,-14.0,-8.0,-12.0,-40.0,-42.0,-45.0,0.0,0.0,0.0,0.0,0.0,0.0,0.0,0.0,0
-30.0,-5.0,-35.0,-21.0,-5.0,-33.0,-30.0,-38.0,0.0,0.0,0.0,0.0,0.0,0.0,0.0,0.0,3
-45.0,-39.0,-40.0,-25.0,-5.0,-37.0,-29.0,-36.0,0.0,0.0,0.0,0.0,0.0,0.0,0.0,0.0,3
-50.0,-50.0,-46.0,-35.0,-12.0,-33.0,-27.0,-32.0,0.0,0.0,0.0,0.0,0.0,0.0,0.0,0.0,3
-48.0,-54.0,-53.0,-31.0,-4.0,-29.0,-25.0,-32.0,0.0,0.0,0.0,0.0,0.0,0.0,0.0,0.0,3
-25.0,-53.0,-24.0,-3.0,-8.0,-39.0,-29.0,-28.0,0.0,0.0,0.0,0.0,0.0,0.0,0.0,0.0,3
3.0,-61.0,-17.0,18.0,-2.0,-33.0,-22.0,-33.0,0.0,0.0,0.0,0.0,0.0,0.0,0.0,0.0,3
-5.0,-95.0,-80.0,-14.0,-11.0,-29.0,-28.0,-36.0,0.0,0.0,0.0,0.0,0.0,0.0,0.0,0.0,3
-34.0,-91.0,-99.0,-47.0,-34.0,-31.0,-28.0,-33.0,0.0,0.0,0.0,0.0,0.0,0.0,0.0,0.0,3
-24.0,-50.0,-69.0,-40.0,-34.0,-30.0,-26.0,-35.0,0.0,0.0,0.0,0.0,0.0,0.0,0.0,0.0,3
-21.0,-26.0,-41.0,-29.0,-22.0,-25.0,-28.0,-31.0,0.0,0.0,0.0,0.0,0.0,0.0,0.0,0.0,3
-30.0,-19.0,-20.0,-20.0,-20.0,-24.0,-26.0,-23.0,0.0,0.0,0.0,0.0,0.0,0.0,0.0,0.0,3
-36.0,-26.0,-12.0,-12.0,-15.0,-25.0,-30.0,-27.0,0.0,0.0,0.0,0.0,0.0,0.0,0.0,0.0,3
-79.0,-42.0,16.0,22.0,-8.0,-19.0,-34.0,-19.0,0.0,0.0,0.0,0.0,0.0,0.0,0.0,0.0,3
-86.0,-30.0,77.0,63.0,0.0,-16.0,-33.0,-21.0,0.0,0.0,0.0,0.0,0.0,0.0,0.0,0.0,3
-77.0,-12.0,96.0,47.0,-13.0,-27.0,-40.0,-29.0,0.0,0.0,0.0,0.0,0.0,0.0,0.0,0.0,3
-59.0,-11.0,19.0,-23.0,-37.0,-35.0,-48.0,-34.0,0.0,0.0,0.0,0.0,0.0,0.0,0.0,0.0,3
-32.0,-7.0,-44.0,-77.0,-53.0,-39.0,-42.0,-32.0,0.0,0.0,0.0,0.0,0.0,0.0,0.0,0.0,3
-3.0,-12.0,-79.0,-97.0,-59.0,-41.0,-44.0,-43.0,0.0,0.0,0.0,0.0,0.0,0.0,0.0,0.0,3
-14.0,-38.0,-110.0,-113.0,-73.0,-52.0,-37.0,-45.0,0.0,0.0,0.0,0.0,0.0,0.0,0.0,0.0,3
-10.0,-43.0,-119.0,-123.0,-86.0,-56.0,-40.0,-51.0,0.0,0.0,0.0,0.0,0.0,0.0,0.0,0.0,3
42.0,-28.0,-123.0,-122.0,-85.0,-55.0,-40.0,-51.0,0.0,0.0,0.0,0.0,0.0,0.0,0.0,0.0,3
50.0,-19.0,-108.0,-125.0,-80.0,-54.0,-37.0,-43.0,0.0,0.0,0.0,0.0,0.0,0.0,0.0,0.0,3
5.0,-31.0,-100.0,-115.0,-80.0,-56.0,-35.0,-40.0,0.0,0.0,0.0,0.0,0.0,0.0,0.0,0.0,3
-8.0,-17.0,-79.0,-104.0,-79.0,-55.0,-32.0,-42.0,0.0,0.0,0.0,0.0,0.0,0.0,0.0,0.0,3
5.0,-20.0,-71.0,-87.0,-72.0,-46.0,-29.0,-42.0,0.0,0.0,0.0,0.0,0.0,0.0,0.0,0.0,3
-2.0,-31.0,-50.0,-57.0,-44.0,-40.0,-25.0,-47.0,0.0,0.0,0.0,0.0,0.0,0.0,0.0,0.0,3
12.0,2.0,-14.0,-14.0,-9.0,-26.0,-17.0,-46.0,0.0,0.0,0.0,0.0,0.0,0.0,0.0,0.0,3
10.0,10.0,-6.0,-3.0,11.0,-18.0,-22.0,-46.0,0.0,0.0,0.0,0.0,0.0,0.0,0.0,0.0,3
1.0,2.0,-8.0,13.0,9.0,-15.0,-34.0,-35.0,0.0,0.0,0.0,0.0,0.0,0.0,0.0,0.0,3
-4.0,-1.0,0.0,23.0,10.0,-17.0,-37.0,-25.0,0.0,0.0,0.0,0.0,0.0,0.0,0.0,0.0,3
-21.0,-5.0,17.0,37.0,11.0,-22.0,-33.0,-22.0,0.0,0.0,0.0,0.0,0.0,0.0,0.0,0.0,3
-29.0,-3.0,44.0,55.0,14.0,-23.0,-28.0,-17.0,0.0,0.0,0.0,0.0,0.0,0.0,0.0,0.0,3
-79.0,-23.0,33.0,39.0,8.0,-23.0,-26.0,-8.0,0.0,0.0,0.0,0.0,0.0,0.0,0.0,0.0,3
-113.0,-38.0,4.0,23.0,12.0,-15.0,-26.0,-20.0,0.0,0.0,0.0,0.0,0.0,0.0,0.0,0.0,3
-102.0,-65.0,-17.0,15.0,12.0,-23.0,-35.0,-40.0,0.0,0.0,0.0,0.0,0.0,0.0,0.0,0.0,3
-110.0,-86.0,-48.0,-12.0,-9.0,-32.0,-36.0,-53.0,0.0,0.0,0.0,0.0,0.0,0.0,0.0,0.0,3
-117.0,-90.0,-74.0,-54.0,-45.0,-47.0,-43.0,-60.0,0.0,0.0,0.0,0.0,0.0,0.0,0.0,0.0,3
-53.0,-77.0,-81.0,-87.0,-72.0,-66.0,-53.0,-67.0,0.0,0.0,0.0,0.0,0.0,0.0,0.0,0.0,3
-13.0,-58.0,-94.0,-107.0,-85.0,-72.0,-48.0,-63.0,0.0,0.0,0.0,0.0,0.0,0.0,0.0,0.0,3
-15.0,-24.0,-111.0,-124.0,-92.0,-74.0,-50.0,-61.0,0.0,0.0,0.0,0.0,0.0,0.0,0.0,0.0,3
-4.0,-19.0,-104.0,-116.0,-90.0,-73.0,-50.0,-67.0,0.0,0.0,0.0,0.0,0.0,0.0,0.0,0.0,3
1.0,-18.0,-85.0,-99.0,-95.0,-63.0,-37.0,-63.0,0.0,0.0,0.0,0.0,0.0,0.0,0.0,0.0,3
-33.0,-36.0,-80.0,-99.0,-86.0,-58.0,-37.0,-45.0,0.0,0.0,0.0,0.0,0.0,0.0,0.0,0.0,3
-55.0,-85.0,-96.0,-89.0,-74.0,-47.0,-36.0,-51.0,0.0,0.0,0.0,0.0,0.0,0.0,0.0,0.0,3
-29.0,-100.0,-85.0,-59.0,-56.0,-33.0,-28.0,-46.0,0.0,0.0,0.0,0.0,0.0,0.0,0.0,0.0,3
-11.0,-56.0,-26.0,-17.0,-34.0,-28.0,-22.0,-38.0,0.0,0.0,0.0,0.0,0.0,0.0,0.0,0.0,3
14.0,0.0,69.0,57.0,11.0,-13.0,-17.0,-30.0,0.0,0.0,0.0,0.0,0.0,0.0,0.0,0.0,3
3.0,1.0,109.0,88.0,36.0,3.0,-29.0,-16.0,0.0,0.0,0.0,0.0,0.0,0.0,0.0,0.0,3
-48.0,-18.0,80.0,62.0,41.0,15.0,-25.0,-14.0,0.0,0.0,0.0,0.0,0.0,0.0,0.0,0.0,3
-76.0,-25.0,50.0,46.0,47.0,14.0,-29.0,-9.0,0.0,0.0,0.0,0.0,0.0,0.0,0.0,0.0,3
-67.0,-12.0,64.0,38.0,31.0,8.0,-26.0,-5.0,0.0,0.0,0.0,0.0,0.0,0.0,0.0,0.0,3
-48.0,-23.0,60.0,21.0,19.0,0.0,-25.0,5.0,0.0,0.0,0.0,0.0,0.0,0.0,0.0,0.0,3
-65.0,-35.0,21.0,1.0,9.0,0.0,-21.0,16.0,0.0,0.0,0.0,0.0,0.0,0.0,0.0,0.0,3
-73.0,-39.0,-16.0,-23.0,-14.0,-11.0,-26.0,10.0,0.0,0.0,0.0,0.0,0.0,0.0,0.0,0.0,3
-93.0,-53.0,-52.0,-53.0,-33.0,-30.0,-37.0,-11.0,0.0,0.0,0.0,0.0,0.0,0.0,0.0,0.0,3
-83.0,-80.0,-87.0,-69.0,-45.0,-33.0,-42.0,-23.0,0.0,0.0,0.0,0.0,0.0,0.0,0.0,0.0,3
-49.0,-111.0,-143.0,-78.0,-63.0,-41.0,-46.0,-25.0,0.0,0.0,0.0,0.0,0.0,0.0,0.0,0.0,3
-38.0,-128.0,-165.0,-82.0,-58.0,-39.0,-42.0,-30.0,0.0,0.0,0.0,0.0,0.0,0.0,0.0,0.0,3
-15.0,-90.0,-137.0,-75.0,-47.0,-37.0,-33.0,-32.0,0.0,0.0,0.0,0.0,0.0,0.0,0.0,0.0,3
-13.0,-55.0,-84.0,-67.0,-52.0,-31.0,-28.0,-33.0,0.0,0.0,0.0,0.0,0.0,0.0,0.0,0.0,3
-21.0,-39.0,-69.0,-63.0,-53.0,-36.0,-39.0,-38.0,0.0,0.0,0.0,0.0,0.0,0.0,0.0,0.0,3
-25.0,-30.0,-73.0,-72.0,-58.0,-37.0,-37.0,-39.0,0.0,0.0,0.0,0.0,0.0,0.0,0.0,0.0,3
-33.0,-10.0,-64.0,-67.0,-59.0,-31.0,-34.0,-40.0,0.0,0.0,0.0,0.0,0.0,0.0,0.0,0.0,3
-20.0,6.0,-41.0,-54.0,-54.0,-37.0,-31.0,-36.0,0.0,0.0,0.0,0.0,0.0,0.0,0.0,0.0,3
0.0,6.0,-23.0,-39.0,-45.0,-31.0,-23.0,-39.0,0.0,0.0,0.0,0.0,0.0,0.0,0.0,0.0,3
-3.0,2.0,5.0,-26.0,-42.0,-30.0,-31.0,-47.0,0.0,0.0,0.0,0.0,0.0,0.0,0.0,0.0,3
18.0,7.0,50.0,2.0,-31.0,-35.0,-40.0,-49.0,0.0,0.0,0.0,0.0,0.0,0.0,0.0,0.0,3
30.0,15.0,41.0,11.0,-27.0,-30.0,-34.0,-44.0,0.0,0.0,0.0,0.0,0.0,0.0,0.0,0.0,3
26.0,7.0,2.0,-3.0,-22.0,-24.0,-31.0,-39.0,0.0,0.0,0.0,0.0,0.0,0.0,0.0,0.0,3
20.0,-6.0,-15.0,-12.0,-23.0,-28.0,-36.0,-38.0,0.0,0.0,0.0,0.0,0.0,0.0,0.0,0.0,3
-3.0,-10.0,-18.0,-11.0,-16.0,-27.0,-36.0,-38.0,0.0,0.0,0.0,0.0,0.0,0.0,0.0,0.0,3
-38.0,-4.0,-19.0,-6.0,-26.0,-30.0,-41.0,-31.0,0.0,0.0,0.0,0.0,0.0,0.0,0.0,0.0,3
-68.0,-11.0,-27.0,-12.0,-33.0,-32.0,-34.0,-18.0,0.0,0.0,0.0,0.0,0.0,0.0,0.0,0.0,3
-60.0,-30.0,-61.0,-17.0,-37.0,-40.0,-32.0,-24.0,0.0,0.0,0.0,0.0,0.0,0.0,0.0,0.0,3
-48.0,-55.0,-82.0,-33.0,-44.0,-43.0,-31.0,-35.0,0.0,0.0,0.0,0.0,0.0,0.0,0.0,0.0,3
-57.0,-74.0,-89.0,-48.0,-50.0,-54.0,-27.0,-40.0,0.0,0.0,0.0,0.0,0.0,0.0,0.0,0.0,3
-52.0,-68.0,-79.0,-50.0,-56.0,-60.0,-25.0,-33.0,0.0,0.0,0.0,0.0,0.0,0.0,0.0,0.0,3
-28.0,-54.0,-57.0,-54.0,-52.0,-58.0,-19.0,-30.0,0.0,0.0,0.0,0.0,0.0,0.0,0.0,0.0,3
-21.0,-44.0,-27.0,-56.0,-55.0,-64.0,-25.0,-40.0,0.0,0.0,0.0,0.0,0.0,0.0,0.0,0.0,3
-12.0,-20.0,-13.0,-39.0,-61.0,-64.0,-32.0,-46.0,0.0,0.0,0.0,0.0,0.0,0.0,0.0,0.0,3
20.0,6.0,-53.0,-41.0,-59.0,-70.0,-31.0,-43.0,0.0,0.0,0.0,0.0,0.0,0.0,0.0,0.0,3
31.0,25.0,-106.0,-68.0,-66.0,-75.0,-36.0,-48.0,0.0,0.0,0.0,0.0,0.0,0.0,0.0,0.0,3
-15.0,4.0,-119.0,-82.0,-65.0,-68.0,-29.0,-41.0,0.0,0.0,0.0,0.0,0.0,0.0,0.0,0.0,3
-73.0,-48.0,-67.0,-67.0,-52.0,-58.0,-28.0,-49.0,0.0,0.0,0.0,0.0,0.0,0.0,0.0,0.0,3
-96.0,-96.0,-2.0,-49.0,-46.0,-59.0,-30.0,-58.0,0.0,0.0,0.0,0.0,0.0,0.0,0.0,0.0,3
-51.0,-79.0,80.0,-10.0,-30.0,-52.0,-23.0,-46.0,0.0,0.0,0.0,0.0,0.0,0.0,0.0,0.0,3
27.0,-18.0,220.0,63.0,-12.0,-32.0,-22.0,-43.0,0.0,0.0,0.0,0.0,0.0,0.0,0.0,0.0,3
34.0,13.0,308.0,116.0,-3.0,-31.0,-16.0,-37.0,0.0,0.0,0.0,0.0,0.0,0.0,0.0,0.0,3
1.0,63.0,282.0,103.0,3.0,-30.0,-17.0,-37.0,0.0,0.0,0.0,0.0,0.0,0.0,0.0,0.0,3
-22.0,116.0,143.0,21.0,-16.0,-30.0,-14.0,-36.0,0.0,0.0,0.0,0.0,0.0,0.0,0.0,0.0,3
-48.0,109.0,17.0,-43.0,-22.0,-31.0,-19.0,-27.0,0.0,0.0,0.0,0.0,0.0,0.0,0.0,0.0,3
-36.0,54.0,-59.0,-67.0,-17.0,-32.0,-24.0,-23.0,0.0,0.0,0.0,0.0,0.0,0.0,0.0,0.0,3
-15.0,-20.0,-107.0,-67.0,-19.0,-41.0,-24.0,-22.0,0.0,0.0,0.0,0.0,0.0,0.0,0.0,0.0,3
-35.0,-133.0,-140.0,-62.0,-41.0,-42.0,-23.0,-14.0,0.0,0.0,0.0,0.0,0.0,0.0,0.0,0.0,3
-70.0,-242.0,-166.0,-51.0,-47.0,-39.0,-24.0,-13.0,0.0,0.0,0.0,0.0,0.0,0.0,0.0,0.0,3
-86.0,-328.0,-194.0,-39.0,-34.0,-34.0,-14.0,-3.0,0.0,0.0,0.0,0.0,0.0,0.0,0.0,0.0,3
-57.0,-338.0,-209.0,-21.0,-10.0,-20.0,-8.0,-2.0,0.0,0.0,0.0,0.0,0.0,0.0,0.0,0.0,3
-10.0,-251.0,-182.0,-4.0,-1.0,-7.0,-5.0,-2.0,0.0,0.0,0.0,0.0,0.0,0.0,0.0,0.0,3
10.0,-107.0,-119.0,-2.0,-17.0,-21.0,-13.0,-16.0,0.0,0.0,0.0,0.0,0.0,0.0,0.0,0.0,3
-73.0,52.0,-72.0,2.0,-32.0,-32.0,-32.0,-48.0,0.0,0.0,0.0,0.0,0.0,0.0,0.0,0.0,3
-102.0,229.0,-69.0,-26.0,-54.0,-43.0,-63.0,-92.0,0.0,0.0,0.0,0.0,0.0,0.0,0.0,0.0,3
50.0,361.0,-57.0,-37.0,-42.0,-36.0,-106.0,-140.0,0.0,0.0,0.0,0.0,0.0,0.0,0.0,0.0,3
88.0,427.0,3.0,-20.0,-28.0,-31.0,-82.0,-93.0,0.0,0.0,0.0,0.0,0.0,0.0,0.0,0.0,3
6.0,282.0,27.0,-28.0,-28.0,-19.0,33.0,49.0,0.0,0.0,0.0,0.0,0.0,0.0,0.0,0.0,3
-47.0,-5.0,-11.0,-55.0,-35.0,-12.0,97.0,65.0,0.0,0.0,0.0,0.0,0.0,0.0,0.0,0.0,3
-121.0,-261.0,-65.0,-80.0,-34.0,-17.0,105.0,53.0,0.0,0.0,0.0,0.0,0.0,0.0,0.0,0.0,3
-220.0,-510.0,-128.0,-111.0,-45.0,-20.0,38.0,14.0,0.0,0.0,0.0,0.0,0.0,0.0,0.0,0.0,3
-295.0,-607.0,-236.0,-170.0,-74.0,-45.0,-33.0,-2.0,0.0,0.0,0.0,0.0,0.0,0.0,0.0,0.0,3
-168.0,-424.0,-263.0,-188.0,-92.0,-58.0,-88.0,-13.0,0.0,0.0,0.0,0.0,0.0,0.0,0.0,0.0,3
-46.0,-386.0,-208.0,-139.0,-67.0,-52.0,-166.0,-71.0,0.0,0.0,0.0,0.0,0.0,0.0,0.0,0.0,3
-35.0,-335.0,-165.0,-108.0,-64.0,-73.0,-250.0,-109.0,0.0,0.0,0.0,0.0,0.0,0.0,0.0,0.0,3
36.0,-179.0,-139.0,-92.0,-72.0,-91.0,-272.0,-111.0,0.0,0.0,0.0,0.0,0.0,0.0,0.0,0.0,3
66.0,6.0,-69.0,-62.0,-64.0,-86.0,-227.0,-44.0,0.0,0.0,0.0,0.0,0.0,0.0,0.0,0.0,3
50.0,158.0,12.0,-23.0,-40.0,-58.0,-175.0,-18.0,0.0,0.0,0.0,0.0,0.0,0.0,0.0,0.0,3
5.0,155.0,51.0,5.0,-33.0,-55.0,-134.0,-55.0,0.0,0.0,0.0,0.0,0.0,0.0,0.0,0.0,3
26.0,128.0,68.0,24.0,-29.0,-44.0,-108.0,-65.0,0.0,0.0,0.0,0.0,0.0,0.0,0.0,0.0,3
90.0,119.0,112.0,80.0,11.0,10.0,-44.0,-47.0,0.0,0.0,0.0,0.0,0.0,0.0,0.0,0.0,3
127.0,131.0,171.0,122.0,51.0,44.0,8.0,-71.0,0.0,0.0,0.0,0.0,0.0,0.0,0.0,0.0,3
103.0,183.0,210.0,124.0,63.0,66.0,80.0,-67.0,0.0,0.0,0.0,0.0,0.0,0.0,0.0,0.0,3
4.0,275.0,257.0,118.0,50.0,54.0,145.0,-81.0,0.0,0.0,0.0,0.0,0.0,0.0,0.0,0.0,3
13.0,422.0,346.0,160.0,72.0,59.0,207.0,-54.0,0.0,0.0,0.0,0.0,0.0,0.0,0.0,0.0,3
58.0,257.0,335.0,172.0,79.0,80.0,295.0,172.0,0.0,0.0,0.0,0.0,0.0,0.0,0.0,0.0,3
-76.0,-29.0,145.0,51.0,28.0,54.0,287.0,276.0,0.0,0.0,0.0,0.0,0.0,0.0,0.0,0.0,3
74.0,455.0,21.0,-78.0,-51.0,3.0,140.0,253.0,0.0,0.0,0.0,0.0,0.0,0.0,0.0,0.0,3
363.0,712.0,26.0,-75.0,-49.0,-23.0,-50.0,72.0,0.0,0.0,0.0,0.0,0.0,0.0,0.0,0.0,3
259.0,151.0,-51.0,-61.0,-32.0,-26.0,-145.0,-364.0,0.0,0.0,0.0,0.0,0.0,0.0,0.0,0.0,3
-57.0,-536.0,-195.0,-127.0,-67.0,-30.0,-76.0,-634.0,0.0,0.0,0.0,0.0,0.0,0.0,0.0,0.0,3
-280.0,-573.0,-334.0,-241.0,-144.0,-46.0,72.0,-566.0,0.0,0.0,0.0,0.0,0.0,0.0,0.0,0.0,3
-166.0,-178.0,-316.0,-249.0,-165.0,-84.0,78.0,-218.0,0.0,0.0,0.0,0.0,0.0,0.0,0.0,0.0,3
-350.0,-337.0,-240.0,-205.0,-133.0,-130.0,-173.0,304.0,0.0,0.0,0.0,0.0,0.0,0.0,0.0,0.0,3
-643.0,-446.0,-318.0,-303.0,-203.0,-243.0,-416.0,482.0,0.0,0.0,0.0,0.0,0.0,0.0,0.0,0.0,3
-363.0,-98.0,-299.0,-337.0,-252.0,-340.0,-599.0,292.0,0.0,0.0,0.0,0.0,0.0,0.0,0.0,0.0,3
-224.0,-296.0,-243.0,-279.0,-214.0,-262.0,-325.0,384.0,0.0,0.0,0.0,0.0,0.0,0.0,0.0,0.0,3
-396.0,-789.0,-325.0,-223.0,-158.0,-142.0,-88.0,419.0,0.0,0.0,0.0,0.0,0.0,0.0,0.0,0.0,3
-572.0,-866.0,-376.0,-164.0,-91.0,-100.0,-131.0,113.0,0.0,0.0,0.0,0.0,0.0,0.0,0.0,0.0,3
-281.0,-230.0,-160.0,-27.0,-4.0,-53.0,-102.0,-28.0,0.0,0.0,0.0,0.0,0.0,0.0,0.0,0.0,3
239.0,240.0,183.0,156.0,86.0,17.0,48.0,-84.0,0.0,0.0,0.0,0.0,0.0,0.0,0.0,0.0,3
290.0,39.0,313.0,233.0,126.0,54.0,118.0,-115.0,0.0,0.0,0.0,0.0,0.0,0.0,0.0,0.0,3
222.0,56.0,295.0,220.0,120.0,58.0,63.0,-189.0,0.0,0.0,0.0,0.0,0.0,0.0,0.0,0.0,3
264.0,348.0,278.0,188.0,98.0,34.0,-70.0,-240.0,0.0,0.0,0.0,0.0,0.0,0.0,0.0,0.0,3
139.0,409.0,259.0,160.0,83.0,14.0,-91.0,-225.0,0.0,0.0,0.0,0.0,0.0,0.0,0.0,0.0,3
-143.0,679.0,270.0,103.0,43.0,8.0,-34.0,-10.0,0.0,0.0,0.0,0.0,0.0,0.0,0.0,0.0,3
-55.0,1180.0,305.0,56.0,4.0,-6.0,41.0,129.0,0.0,0.0,0.0,0.0,0.0,0.0,0.0,0.0,3
77.0,656.0,204.0,47.0,9.0,-9.0,-72.0,-138.0,0.0,0.0,0.0,0.0,0.0,0.0,0.0,0.0,3
-46.0,254.0,200.0,97.0,37.0,-13.0,-71.0,-303.0,0.0,0.0,0.0,0.0,0.0,0.0,0.0,0.0,3
223.0,327.0,151.0,88.0,45.0,75.0,207.0,-122.0,0.0,0.0,0.0,0.0,0.0,0.0,0.0,0.0,3
875.0,395.0,-40.0,14.0,11.0,116.0,403.0,98.0,0.0,0.0,0.0,0.0,0.0,0.0,0.0,0.0,3
1004.0,-133.0,-300.0,-81.0,-24.0,51.0,298.0,-57.0,0.0,0.0,0.0,0.0,0.0,0.0,0.0,0.0,3
658.0,-1022.0,-492.0,-152.0,-28.0,48.0,521.0,-54.0,0.0,0.0,0.0,0.0,0.0,0.0,0.0,0.0,3
254.0,-1004.0,-562.0,-241.0,-75.0,50.0,566.0,-194.0,0.0,0.0,0.0,0.0,0.0,0.0,0.0,0.0,3
-49.0,-335.0,-332.0,-209.0,-59.0,46.0,170.0,-472.0,0.0,0.0,0.0,0.0,0.0,0.0,0.0,0.0,3
-404.0,-452.0,-77.0,-44.0,72.0,120.0,31.0,-65.0,0.0,0.0,0.0,0.0,0.0,0.0,0.0,0.0,3
-1256.0,-1120.0,-239.0,-132.0,-14.0,3.0,-110.0,351.0,0.0,0.0,0.0,0.0,0.0,0.0,0.0,0.0,3
-1464.0,-1458.0,-355.0,-221.0,-152.0,-135.0,-332.0,-88.0,0.0,0.0,0.0,0.0,0.0,0.0,0.0,0.0,3
-799.0,-861.0,-222.0,-148.0,-158.0,-148.0,-545.0,-850.0,0.0,0.0,0.0,0.0,0.0,0.0,0.0,0.0,3
109.0,322.0,13.0,-35.0,-87.0,-111.0,-568.0,-928.0,0.0,0.0,0.0,0.0,0.0,0.0,0.0,0.0,3
655.0,742.0,144.0,16.0,-41.0,-92.0,-484.0,-26.0,0.0,0.0,0.0,0.0,0.0,0.0,0.0,0.0,3
376.0,851.0,148.0,-65.0,-117.0,-193.0,-645.0,328.0,0.0,0.0,0.0,0.0,0.0,0.0,0.0,0.0,3
-298.0,717.0,124.0,-104.0,-168.0,-216.0,-683.0,600.0,0.0,0.0,0.0,0.0,0.0,0.0,0.0,0.0,3
-256.0,845.0,84.0,-57.0,-132.0,-123.0,-641.0,304.0,0.0,0.0,0.0,0.0,0.0,0.0,0.0,0.0,3
91.0,566.0,-64.0,-78.0,-116.0,-83.0,-140.0,31.0,0.0,0.0,0.0,0.0,0.0,0.0,0.0,0.0,3
-34.0,-456.0,-347.0,-112.0,-86.0,-50.0,150.0,68.0,0.0,0.0,0.0,0.0,0.0,0.0,0.0,0.0,3
-120.0,-912.0,-461.0,-113.0,-62.0,-41.0,60.0,75.0,0.0,0.0,0.0,0.0,0.0,0.0,0.0,0.0,3
-165.0,-1455.0,-479.0,-39.0,-11.0,-136.0,-221.0,-122.0,0.0,0.0,0.0,0.0,0.0,0.0,0.0,0.0,3
-216.0,-1764.0,-361.0,71.0,39.0,-173.0,-334.0,-220.0,0.0,0.0,0.0,0.0,0.0,0.0,0.0,0.0,3
-531.0,-883.0,-7.0,130.0,56.0,-130.0,-66.0,-100.0,0.0,0.0,0.0,0.0,0.0,0.0,0.0,0.0,3
-858.0,142.0,281.0,105.0,42.0,-41.0,326.0,-48.0,0.0,0.0,0.0,0.0,0.0,0.0,0.0,0.0,3
-1074.0,1311.0,686.0,137.0,21.0,15.0,546.0,-33.0,0.0,0.0,0.0,0.0,0.0,0.0,0.0,0.0,3
-397.0,2336.0,1052.0,197.0,29.0,180.0,751.0,107.0,0.0,0.0,0.0,0.0,0.0,0.0,0.0,0.0,3
418.0,2064.0,794.0,80.0,9.0,381.0,869.0,369.0,0.0,0.0,0.0,0.0,0.0,0.0,0.0,0.0,3
592.0,914.0,262.0,-44.0,2.0,300.0,598.0,386.0,0.0,0.0,0.0,0.0,0.0,0.0,0.0,0.0,3
500.0,220.0,-1.0,-59.0,10.0,109.0,257.0,302.0,0.0,0.0,0.0,0.0,0.0,0.0,0.0,0.0,3
511.0,70.0,-241.0,-166.0,-73.0,-6.0,59.0,167.0,0.0,0.0,0.0,0.0,0.0,0.0,0.0,0.0,3
162.0,-744.0,-657.0,-297.0,-163.0,-70.0,0.0,85.0,0.0,0.0,0.0,0.0,0.0,0.0,0.0,0.0,3
223.0,-853.0,-737.0,-272.0,-162.0,-109.0,-13.0,122.0,0.0,0.0,0.0,0.0,0.0,0.0,0.0,0.0,3
371.0,-514.0,-419.0,-112.0,-83.0,-99.0,33.0,66.0,0.0,0.0,0.0,0.0,0.0,0.0,0.0,0.0,3
552.0,12.0,-63.0,54.0,0.0,-68.0,129.0,264.0,0.0,0.0,0.0,0.0,0.0,0.0,0.0,0.0,3
593.0,112.0,2.0,79.0,23.0,-65.0,18.0,127.0,0.0,0.0,0.0,0.0,0.0,0.0,0.0,0.0,3
478.0,-179.0,-22.0,52.0,12.0,-104.0,-205.0,-329.0,0.0,0.0,0.0,0.0,0.0,0.0,0.0,0.0,3
12.0,-517.0,-49.0,53.0,5.0,-139.0,-397.0,-920.0,0.0,0.0,0.0,0.0,0.0,0.0,0.0,0.0,3
-608.0,-1123.0,-131.0,57.0,3.0,-120.0,-436.0,-807.0,0.0,0.0,0.0,0.0,0.0,0.0,0.0,0.0,3
-603.0,-909.0,-111.0,61.0,-14.0,-89.0,-315.0,-354.0,0.0,0.0,0.0,0.0,0.0,0.0,0.0,0.0,3
-163.0,-176.0,84.0,126.0,21.0,-56.0,-256.0,-190.0,0.0,0.0,0.0,0.0,0.0,0.0,0.0,0.0,3
292.0,549.0,363.0,220.0,86.0,-46.0,-245.0,-98.0,0.0,0.0,0.0,0.0,0.0,0.0,0.0,0.0,3
589.0,944.0,538.0,193.0,60.0,-96.0,-319.0,-131.0,0.0,0.0,0.0,0.0,0.0,0.0,0.0,0.0,3
556.0,1157.0,538.0,115.0,10.0,-112.0,-257.0,-75.0,0.0,0.0,0.0,0.0,0.0,0.0,0.0,0.0,3
163.0,492.0,173.0,-68.0,-80.0,-127.0,-185.0,-28.0,0.0,0.0,0.0,0.0,0.0,0.0,0.0,0.0,3
-12.0,-233.0,-218.0,-207.0,-147.0,-93.0,-168.0,-8.0,0.0,0.0,0.0,0.0,0.0,0.0,0.0,0.0,3
220.0,-582.0,-271.0,-140.0,-69.0,57.0,23.0,90.0,0.0,0.0,0.0,0.0,0.0,0.0,0.0,0.0,3
177.0,-1082.0,-289.0,-83.0,-6.0,154.0,216.0,155.0,0.0,0.0,0.0,0.0,0.0,0.0,0.0,0.0,3
-207.0,-967.0,-279.0,-67.0,5.0,110.0,168.0,102.0,0.0,0.0,0.0,0.0,0.0,0.0,0.0,0.0,3
-114.0,86.0,-121.0,-2.0,50.0,82.0,143.0,123.0,0.0,0.0,0.0,0.0,0.0,0.0,0.0,0.0,3
-117.0,664.0,95.0,51.0,46.0,12.0,96.0,90.0,0.0,0.0,0.0,0.0,0.0,0.0,0.0,0.0,3
23.0,957.0,232.0,16.0,-32.0,-82.0,-33.0,-32.0,0.0,0.0,0.0,0.0,0.0,0.0,0.0,0.0,3
364.0,869.0,206.0,-8.0,-58.0,-44.0,-81.0,-122.0,0.0,0.0,0.0,0.0,0.0,0.0,0.0,0.0,3
136.0,111.0,79.0,13.0,0.0,92.0,55.0,-113.0,0.0,0.0,0.0,0.0,0.0,0.0,0.0,0.0,3
-188.0,-324.0,-108.0,-70.0,-40.0,55.0,91.0,0.0,0.0,0.0,0.0,0.0,0.0,0.0,0.0,0.0,3
-341.0,-499.0,-307.0,-221.0,-171.0,-111.0,-2.0,155.0,0.0,0.0,0.0,0.0,0.0,0.0,0.0,0.0,3
-547.0,-386.0,-323.0,-200.0,-179.0,-185.0,-31.0,331.0,0.0,0.0,0.0,0.0,0.0,0.0,0.0,0.0,3
-926.0,1.0,-246.0,-202.0,-177.0,-49.0,277.0,442.0,0.0,0.0,0.0,0.0,0.0,0.0,0.0,0.0,3
-1448.0,-233.0,-268.0,-309.0,-263.0,-46.0,272.0,17.0,0.0,0.0,0.0,0.0,0.0,0.0,0.0,0.0,3
-1070.0,-631.0,-243.0,-216.0,-204.0,-20.0,187.0,-60.0,0.0,0.0,0.0,0.0,0.0,0.0,0.0,0.0,3
-470.0,-1064.0,-324.0,-127.0,-131.0,6.0,152.0,-10.0,0.0,0.0,0.0,0.0,0.0,0.0,0.0,0.0,3
-564.0,-1188.0,-483.0,-192.0,-154.0,-110.0,-235.0,-339.0,0.0,0.0,0.0,0.0,0.0,0.0,0.0,0.0,3
-232.0,59.0,-239.0,-173.0,-143.0,-176.0,-565.0,-769.0,0.0,0.0,0.0,0.0,0.0,0.0,0.0,0.0,3
443.0,930.0,199.0,-4.0,-16.0,-150.0,-422.0,-234.0,0.0,0.0,0.0,0.0,0.0,0.0,0.0,0.0,3
449.0,452.0,184.0,21.0,-12.0,-215.0,-396.0,207.0,0.0,0.0,0.0,0.0,0.0,0.0,0.0,0.0,3
310.0,-163.0,-52.0,-43.0,-67.0,-225.0,-379.0,320.0,0.0,0.0,0.0,0.0,0.0,0.0,0.0,0.0,3
-3.0,-649.0,-296.0,-91.0,-40.0,-184.0,-382.0,154.0,0.0,0.0,0.0,0.0,0.0,0.0,0.0,0.0,3
-194.0,-578.0,-338.0,-36.0,62.0,-103.0,-267.0,95.0,0.0,0.0,0.0,0.0,0.0,0.0,0.0,0.0,3
297.0,200.0,-161.0,58.0,149.0,95.0,47.0,91.0,0.0,0.0,0.0,0.0,0.0,0.0,0.0,0.0,3
321.0,486.0,-56.0,75.0,158.0,225.0,292.0,6.0,0.0,0.0,0.0,0.0,0.0,0.0,0.0,0.0,3
-43.0,-405.0,-261.0,-29.0,84.0,113.0,233.0,-127.0,0.0,0.0,0.0,0.0,0.0,0.0,0.0,0.0,3
190.0,-155.0,-119.0,-43.0,30.0,5.0,-1.0,-214.0,0.0,0.0,0.0,0.0,0.0,0.0,0.0,0.0,3
372.0,779.0,294.0,57.0,52.0,56.0,24.0,-189.0,0.0,0.0,0.0,0.0,0.0,0.0,0.0,0.0,3
401.0,1146.0,529.0,128.0,75.0,60.0,71.0,-135.0,0.0,0.0,0.0,0.0,0.0,0.0,0.0,0.0,3
194.0,660.0,530.0,141.0,52.0,-2.0,23.0,-122.0,0.0,0.0,0.0,0.0,0.0,0.0,0.0,0.0,3
-77.0,85.0,476.0,198.0,84.0,28.0,44.0,-100.0,0.0,0.0,0.0,0.0,0.0,0.0,0.0,0.0,3
-331.0,-459.0,216.0,101.0,34.0,13.0,30.0,-99.0,0.0,0.0,0.0,0.0,0.0,0.0,0.0,0.0,3
-132.0,-224.0,66.0,-29.0,-59.0,-57.0,-27.0,-172.0,0.0,0.0,0.0,0.0,0.0,0.0,0.0,0.0,3
362.0,117.0,126.0,75.0,24.0,6.0,28.0,-116.0,0.0,0.0,0.0,0.0,0.0,0.0,0.0,0.0,3
370.0,-75.0,29.0,141.0,91.0,81.0,83.0,-40.0,0.0,0.0,0.0,0.0,0.0,0.0,0.0,0.0,3
437.0,74.0,-24.0,82.0,50.0,47.0,68.0,19.0,0.0,0.0,0.0,0.0,0.0,0.0,0.0,0.0,3
565.0,896.0,209.0,97.0,46.0,46.0,162.0,64.0,0.0,0.0,0.0,0.0,0.0,0.0,0.0,0.0,3
657.0,1465.0,393.0,68.0,7.0,39.0,150.0,-103.0,0.0,0.0,0.0,0.0,0.0,0.0,0.0,0.0,3
13.0,544.0,89.0,-141.0,-126.0,-45.0,-3.0,-287.0,0.0,0.0,0.0,0.0,0.0,0.0,0.0,0.0,3
-796.0,-569.0,-207.0,-226.0,-154.0,-85.0,-107.0,-262.0,0.0,0.0,0.0,0.0,0.0,0.0,0.0,0.0,3
-239.0,-884.0,-355.0,-223.0,-138.0,-151.0,-210.0,-305.0,0.0,0.0,0.0,0.0,0.0,0.0,0.0,0.0,3
211.0,-1129.0,-540.0,-263.0,-175.0,-226.0,-238.0,-270.0,0.0,0.0,0.0,0.0,0.0,0.0,0.0,0.0,3
-414.0,-1189.0,-697.0,-382.0,-225.0,-202.0,3.0,104.0,0.0,0.0,0.0,0.0,0.0,0.0,0.0,0.0,3
-1221.0,-896.0,-686.0,-554.0,-362.0,-289.0,-77.0,431.0,0.0,0.0,0.0,0.0,0.0,0.0,0.0,0.0,3
-1407.0,-483.0,-497.0,-513.0,-399.0,-319.0,-360.0,178.0,0.0,0.0,0.0,0.0,0.0,0.0,0.0,0.0,3
-856.0,-179.0,-226.0,-202.0,-173.0,-90.0,-305.0,-24.0,0.0,0.0,0.0,0.0,0.0,0.0,0.0,0.0,3
-218.0,86.0,-85.0,-25.0,-38.0,24.0,-276.0,-89.0,0.0,0.0,0.0,0.0,0.0,0.0,0.0,0.0,3
-133.0,-65.0,-84.0,8.0,-5.0,64.0,-227.0,-186.0,0.0,0.0,0.0,0.0,0.0,0.0,0.0,0.0,3
-108.0,-331.0,-126.0,58.0,44.0,93.0,-133.0,-164.0,0.0,0.0,0.0,0.0,0.0,0.0,0.0,0.0,3
295.0,-639.0,-28.0,190.0,131.0,84.0,-172.0,5.0,0.0,0.0,0.0,0.0,0.0,0.0,0.0,0.0,3
633.0,-573.0,193.0,302.0,180.0,95.0,-137.0,72.0,0.0,0.0,0.0,0.0,0.0,0.0,0.0,0.0,3
295.0,-341.0,343.0,322.0,170.0,116.0,12.0,-12.0,0.0,0.0,0.0,0.0,0.0,0.0,0.0,0.0,3
147.0,198.0,367.0,244.0,63.0,86.0,305.0,-34.0,0.0,0.0,0.0,0.0,0.0,0.0,0.0,0.0,3
1.0,656.0,298.0,152.0,-21.0,104.0,511.0,-9.0,0.0,0.0,0.0,0.0,0.0,0.0,0.0,0.0,3
-27.0,405.0,68.0,95.0,-9.0,143.0,413.0,87.0,0.0,0.0,0.0,0.0,0.0,0.0,0.0,0.0,3
300.0,80.0,-52.0,56.0,0.0,18.0,161.0,125.0,0.0,0.0,0.0,0.0,0.0,0.0,0.0,0.0,3
327.0,223.0,82.0,85.0,24.0,-47.0,32.0,99.0,0.0,0.0,0.0,0.0,0.0,0.0,0.0,0.0,3
67.0,293.0,136.0,80.0,23.0,-9.0,21.0,103.0,0.0,0.0,0.0,0.0,0.0,0.0,0.0,0.0,3
-194.0,59.0,83.0,11.0,-11.0,-12.0,-43.0,-73.0,0.0,0.0,0.0,0.0,0.0,0.0,0.0,0.0,3
-259.0,177.0,65.0,-18.0,-19.0,-13.0,-21.0,-45.0,0.0,0.0,0.0,0.0,0.0,0.0,0.0,0.0,3
142.0,448.0,80.0,-42.0,-20.0,-13.0,144.0,167.0,0.0,0.0,0.0,0.0,0.0,0.0,0.0,0.0,3
543.0,515.0,147.0,-41.0,-19.0,-11.0,270.0,241.0,0.0,0.0,0.0,0.0,0.0,0.0,0.0,0.0,3
750.0,603.0,104.0,-75.0,-39.0,-58.0,210.0,36.0,0.0,0.0,0.0,0.0,0.0,0.0,0.0,0.0,3
609.0,697.0,99.0,-91.0,-60.0,-89.0,63.0,-75.0,0.0,0.0,0.0,0.0,0.0,0.0,0.0,0.0,3
81.0,393.0,56.0,-72.0,-56.0,-121.0,-176.0,-165.0,0.0,0.0,0.0,0.0,0.0,0.0,0.0,0.0,3
-751.0,-278.0,-164.0,-128.0,-96.0,-172.0,-346.0,-217.0,0.0,0.0,0.0,0.0,0.0,0.0,0.0,0.0,3
-1227.0,-858.0,-371.0,-195.0,-129.0,-188.0,-396.0,-236.0,0.0,0.0,0.0,0.0,0.0,0.0,0.0,0.0,3
-653.0,-569.0,-301.0,-136.0,-81.0,-169.0,-320.0,-158.0,0.0,0.0,0.0,0.0,0.0,0.0,0.0,0.0,3
341.0,254.0,-194.0,-103.0,-56.0,-181.0,-254.0,-105.0,0.0,0.0,0.0,0.0,0.0,0.0,0.0,0.0,3
571.0,-208.0,-295.0,-140.0,-73.0,-122.0,-115.0,-126.0,0.0,0.0,0.0,0.0,0.0,0.0,0.0,0.0,3
613.0,-263.0,-266.0,-165.0,-93.0,-90.0,-10.0,-186.0,0.0,0.0,0.0,0.0,0.0,0.0,0.0,0.0,3
324.0,211.0,-92.0,-200.0,-141.0,-103.0,19.0,-224.0,0.0,0.0,0.0,0.0,0.0,0.0,0.0,0.0,3
-405.0,-49.0,-164.0,-291.0,-192.0,-12.0,111.0,-110.0,0.0,0.0,0.0,0.0,0.0,0.0,0.0,0.0,3
-111.0,310.0,-63.0,-217.0,-116.0,117.0,260.0,247.0,0.0,0.0,0.0,0.0,0.0,0.0,0.0,0.0,3
280.0,176.0,-15.0,-135.0,-72.0,59.0,105.0,313.0,0.0,0.0,0.0,0.0,0.0,0.0,0.0,0.0,3
232.0,-343.0,-98.0,-80.0,-39.0,38.0,2.0,123.0,0.0,0.0,0.0,0.0,0.0,0.0,0.0,0.0,3
-40.0,-740.0,-138.0,-30.0,-12.0,-5.0,-108.0,-210.0,0.0,0.0,0.0,0.0,0.0,0.0,0.0,0.0,3
-166.0,-455.0,-98.0,-19.0,-23.0,-159.0,-269.0,-258.0,0.0,0.0,0.0,0.0,0.0,0.0,0.0,0.0,3
-208.0,-77.0,-32.0,13.0,5.0,-161.0,-229.0,92.0,0.0,0.0,0.0,0.0,0.0,0.0,0.0,0.0,3
-14.0,177.0,47.0,-7.0,3.0,-127.0,-227.0,131.0,0.0,0.0,0.0,0.0,0.0,0.0,0.0,0.0,3
80.0,203.0,195.0,96.0,88.0,5.0,-225.0,130.0,0.0,0.0,0.0,0.0,0.0,0.0,0.0,0.0,3
-233.0,189.0,245.0,142.0,130.0,126.0,-190.0,41.0,0.0,0.0,0.0,0.0,0.0,0.0,0.0,0.0,3
-155.0,405.0,278.0,178.0,156.0,226.0,21.0,-73.0,0.0,0.0,0.0,0.0,0.0,0.0,0.0,0.0,3
483.0,341.0,253.0,160.0,116.0,145.0,42.0,-131.0,0.0,0.0,0.0,0.0,0.0,0.0,0.0,0.0,3
554.0,128.0,235.0,103.0,36.0,-11.0,-172.0,-112.0,0.0,0.0,0.0,0.0,0.0,0.0,0.0,0.0,3
-226.0,-623.0,-65.0,-27.0,-13.0,-30.0,-232.0,-169.0,0.0,0.0,0.0,0.0,0.0,0.0,0.0,0.0,3
-1066.0,-1052.0,-346.0,-102.0,-29.0,-16.0,-104.0,-240.0,0.0,0.0,0.0,0.0,0.0,0.0,0.0,0.0,3
-1475.0,-1287.0,-423.0,-138.0,-68.0,-93.0,-104.0,-235.0,0.0,0.0,0.0,0.0,0.0,0.0,0.0,0.0,3
-1242.0,-1093.0,-375.0,-149.0,-112.0,-159.0,-150.0,-157.0,0.0,0.0,0.0,0.0,0.0,0.0,0.0,0.0,3
-867.0,-491.0,-189.0,-72.0,-94.0,-138.0,-45.0,19.0,0.0,0.0,0.0,0.0,0.0,0.0,0.0,0.0,3
-565.0,-65.0,-90.0,-52.0,-107.0,-86.0,202.0,208.0,0.0,0.0,0.0,0.0,0.0,0.0,0.0,0.0,3
-116.0,71.0,-8.0,23.0,-46.0,49.0,404.0,417.0,0.0,0.0,0.0,0.0,0.0,0.0,0.0,0.0,3
273.0,152.0,84.0,99.0,9.0,93.0,314.0,287.0,0.0,0.0,0.0,0.0,0.0,0.0,0.0,0.0,3
452.0,91.0,25.0,81.0,14.0,76.0,52.0,-51.0,0.0,0.0,0.0,0.0,0.0,0.0,0.0,0.0,3
460.0,266.0,43.0,85.0,20.0,4.0,-93.0,-36.0,0.0,0.0,0.0,0.0,0.0,0.0,0.0,0.0,3
209.0,965.0,258.0,96.0,45.0,69.0,79.0,227.0,0.0,0.0,0.0,0.0,0.0,0.0,0.0,0.0,3
98.0,1038.0,290.0,6.0,-45.0,-21.0,67.0,127.0,0.0,0.0,0.0,0.0,0.0,0.0,0.0,0.0,3
149.0,572.0,158.0,-31.0,-96.0,-127.0,109.0,43.0,0.0,0.0,0.0,0.0,0.0,0.0,0.0,0.0,3
146.0,232.0,-12.0,-42.0,-79.0,-138.0,-151.0,-128.0,0.0,0.0,0.0,0.0,0.0,0.0,0.0,0.0,3
511.0,150.0,-72.0,26.0,9.0,-67.0,-265.0,-192.0,0.0,0.0,0.0,0.0,0.0,0.0,0.0,0.0,3
649.0,49.0,-92.0,127.0,104.0,-13.0,-261.0,-303.0,0.0,0.0,0.0,0.0,0.0,0.0,0.0,0.0,3
538.0,212.0,-16.0,124.0,70.0,-73.0,6.0,-292.0,0.0,0.0,0.0,0.0,0.0,0.0,0.0,0.0,3
309.0,484.0,105.0,56.0,0.0,-99.0,124.0,-92.0,0.0,0.0,0.0,0.0,0.0,0.0,0.0,0.0,3
-116.0,175.0,-42.0,-83.0,-106.0,-158.0,-145.0,-115.0,0.0,0.0,0.0,0.0,0.0,0.0,0.0,0.0,3
-7.0,-561.0,-335.0,-249.0,-218.0,-241.0,-297.0,-191.0,0.0,0.0,0.0,0.0,0.0,0.0,0.0,0.0,3
-55.0,-952.0,-403.0,-225.0,-148.0,-112.0,-50.0,-137.0,0.0,0.0,0.0,0.0,0.0,0.0,0.0,0.0,3
-157.0,-1007.0,-350.0,-95.0,-29.0,35.0,160.0,-17.0,0.0,0.0,0.0,0.0,0.0,0.0,0.0,0.0,3
-147.0,-334.0,-261.0,-40.0,11.0,62.0,200.0,23.0,0.0,0.0,0.0,0.0,0.0,0.0,0.0,0.0,3
-67.0,123.0,-108.0,-9.0,20.0,77.0,257.0,24.0,0.0,0.0,0.0,0.0,0.0,0.0,0.0,0.0,3
-136.0,-67.0,127.0,37.0,3.0,48.0,169.0,-19.0,0.0,0.0,0.0,0.0,0.0,0.0,0.0,0.0,3
-270.0,113.0,292.0,28.0,-55.0,-22.0,-25.0,-80.0,0.0,0.0,0.0,0.0,0.0,0.0,0.0,0.0,3
-179.0,339.0,296.0,2.0,-65.0,-31.0,-88.0,-60.0,0.0,0.0,0.0,0.0,0.0,0.0,0.0,0.0,3
108.0,603.0,193.0,-7.0,-37.0,40.0,200.0,120.0,0.0,0.0,0.0,0.0,0.0,0.0,0.0,0.0,3
47.0,259.0,-108.0,-148.0,-131.0,12.0,343.0,159.0,0.0,0.0,0.0,0.0,0.0,0.0,0.0,0.0,3
334.0,-149.0,-330.0,-302.0,-222.0,-61.0,115.0,-73.0,0.0,0.0,0.0,0.0,0.0,0.0,0.0,0.0,3
560.0,-405.0,-262.0,-292.0,-208.0,-86.0,-88.0,-70.0,0.0,0.0,0.0,0.0,0.0,0.0,0.0,0.0,3
-70.0,-591.0,-191.0,-214.0,-166.0,-130.0,-502.0,-285.0,0.0,0.0,0.0,0.0,0.0,0.0,0.0,0.0,3
-674.0,-598.0,-164.0,-171.0,-143.0,-170.0,-756.0,-510.0,0.0,0.0,0.0,0.0,0.0,0.0,0.0,0.0,3
-564.0,-333.0,-111.0,-128.0,-92.0,-120.0,-592.0,-277.0,0.0,0.0,0.0,0.0,0.0,0.0,0.0,0.0,3
-443.0,-253.0,-75.0,-87.0,-53.0,-66.0,-383.0,-118.0,0.0,0.0,0.0,0.0,0.0,0.0,0.0,0.0,3
-356.0,-64.0,40.0,10.0,4.0,-18.0,-184.0,35.0,0.0,0.0,0.0,0.0,0.0,0.0,0.0,0.0,3
-164.0,149.0,218.0,162.0,95.0,9.0,-134.0,49.0,0.0,0.0,0.0,0.0,0.0,0.0,0.0,0.0,3
-27.0,308.0,360.0,245.0,146.0,43.0,-70.0,69.0,0.0,0.0,0.0,0.0,0.0,0.0,0.0,0.0,3
2.0,368.0,410.0,227.0,134.0,62.0,63.0,118.0,0.0,0.0,0.0,0.0,0.0,0.0,0.0,0.0,3
202.0,843.0,488.0,219.0,107.0,66.0,177.0,137.0,0.0,0.0,0.0,0.0,0.0,0.0,0.0,0.0,3
310.0,1238.0,485.0,169.0,66.0,22.0,169.0,169.0,0.0,0.0,0.0,0.0,0.0,0.0,0.0,0.0,3
456.0,1153.0,322.0,67.0,-3.0,1.0,184.0,193.0,0.0,0.0,0.0,0.0,0.0,0.0,0.0,0.0,3
589.0,442.0,44.0,-48.0,-64.0,-22.0,165.0,141.0,0.0,0.0,0.0,0.0,0.0,0.0,0.0,0.0,3
572.0,-327.0,-173.0,-84.0,-70.0,-31.0,175.0,99.0,0.0,0.0,0.0,0.0,0.0,0.0,0.0,0.0,3
185.0,-569.0,-256.0,-68.0,-32.0,51.0,173.0,61.0,0.0,0.0,0.0,0.0,0.0,0.0,0.0,0.0,3
-120.0,-524.0,-391.0,-135.0,-69.0,27.0,131.0,-11.0,0.0,0.0,0.0,0.0,0.0,0.0,0.0,0.0,3
-436.0,-709.0,-479.0,-151.0,-78.0,2.0,109.0,4.0,0.0,0.0,0.0,0.0,0.0,0.0,0.0,0.0,3
-680.0,-826.0,-419.0,-115.0,-49.0,3.0,24.0,-62.0,0.0,0.0,0.0,0.0,0.0,0.0,0.0,0.0,3
-608.0,-1195.0,-356.0,-108.0,-48.0,-32.0,-81.0,-184.0,0.0,0.0,0.0,0.0,0.0,0.0,0.0,0.0,3
-555.0,-1394.0,-322.0,-132.0,-60.0,-66.0,-131.0,-196.0,0.0,0.0,0.0,0.0,0.0,0.0,0.0,0.0,3
-287.0,-652.0,-212.0,-130.0,-67.0,-88.0,-135.0,-125.0,0.0,0.0,0.0,0.0,0.0,0.0,0.0,0.0,3
-10.0,293.0,12.0,-115.0,-76.0,-120.0,-149.0,-32.0,0.0,0.0,0.0,0.0,0.0,0.0,0.0,0.0,3
59.0,498.0,95.0,-126.0,-100.0,-145.0,-126.0,6.0,0.0,0.0,0.0,0.0,0.0,0.0,0.0,0.0,3
83.0,318.0,-12.0,-113.0,-84.0,-118.0,-60.0,37.0,0.0,0.0,0.0,0.0,0.0,0.0,0.0,0.0,3
281.0,140.0,-181.0,-90.0,-51.0,-88.0,5.0,58.0,0.0,0.0,0.0,0.0,0.0,0.0,0.0,0.0,3
-79.0,-604.0,-433.0,-140.0,-66.0,-61.0,-2.0,-62.0,0.0,0.0,0.0,0.0,0.0,0.0,0.0,0.0,3
-514.0,-702.0,-475.0,-159.0,-72.0,-21.0,94.0,-144.0,0.0,0.0,0.0,0.0,0.0,0.0,0.0,0.0,3
-330.0,-52.0,-288.0,-123.0,-52.0,-22.0,160.0,-188.0,0.0,0.0,0.0,0.0,0.0,0.0,0.0,0.0,3
-14.0,253.0,-170.0,-112.0,-55.0,-37.0,105.0,-117.0,0.0,0.0,0.0,0.0,0.0,0.0,0.0,0.0,3
164.0,631.0,6.0,-78.0,-45.0,-53.0,67.0,21.0,0.0,0.0,0.0,0.0,0.0,0.0,0.0,0.0,3
12.0,510.0,192.0,27.0,0.0,-104.0,-94.0,165.0,0.0,0.0,0.0,0.0,0.0,0.0,0.0,0.0,3
-194.0,134.0,277.0,115.0,51.0,-46.0,-138.0,97.0,0.0,0.0,0.0,0.0,0.0,0.0,0.0,0.0,3
-51.0,-68.0,217.0,126.0,78.0,50.0,-184.0,-112.0,0.0,0.0,0.0,0.0,0.0,0.0,0.0,0.0,3
293.0,304.0,214.0,79.0,18.0,-74.0,-419.0,-169.0,0.0,0.0,0.0,0.0,0.0,0.0,0.0,0.0,3
494.0,760.0,273.0,53.0,-31.0,-127.0,-413.0,-69.0,0.0,0.0,0.0,0.0,0.0,0.0,0.0,0.0,3
219.0,19.0,93.0,16.0,-35.0,67.0,-74.0,19.0,0.0,0.0,0.0,0.0,0.0,0.0,0.0,0.0,3
-348.0,-694.0,-46.0,46.0,22.0,130.0,15.0,68.0,0.0,0.0,0.0,0.0,0.0,0.0,0.0,0.0,3
-80.0,-323.0,-24.0,66.0,47.0,118.0,45.0,101.0,0.0,0.0,0.0,0.0,0.0,0.0,0.0,0.0,3
0.0,86.0,14.0,20.0,6.0,85.0,97.0,12.0,0.0,0.0,0.0,0.0,0.0,0.0,0.0,0.0,3
-84.0,459.0,195.0,44.0,-9.0,-14.0,-18.0,-274.0,0.0,0.0,0.0,0.0,0.0,0.0,0.0,0.0,3
-140.0,339.0,254.0,47.0,-13.0,-85.0,-58.0,-299.0,0.0,0.0,0.0,0.0,0.0,0.0,0.0,0.0,3
-240.0,200.0,235.0,15.0,-36.0,-89.0,-36.0,-122.0,0.0,0.0,0.0,0.0,0.0,0.0,0.0,0.0,3
258.0,629.0,316.0,97.0,17.0,-43.0,-112.0,-81.0,0.0,0.0,0.0,0.0,0.0,0.0,0.0,0.0,3
583.0,358.0,228.0,129.0,11.0,-53.0,-157.0,39.0,0.0,0.0,0.0,0.0,0.0,0.0,0.0,0.0,3
301.0,-76.0,21.0,15.0,-98.0,-144.0,-13.0,214.0,0.0,0.0,0.0,0.0,0.0,0.0,0.0,0.0,3
11.0,-15.0,-127.0,-155.0,-202.0,-142.0,123.0,223.0,0.0,0.0,0.0,0.0,0.0,0.0,0.0,0.0,3
-352.0,-295.0,-302.0,-205.0,-168.0,-117.0,-47.0,-44.0,0.0,0.0,0.0,0.0,0.0,0.0,0.0,0.0,3
-397.0,-755.0,-453.0,-143.0,-72.0,-129.0,-178.0,-204.0,0.0,0.0,0.0,0.0,0.0,0.0,0.0,0.0,3
-423.0,-1214.0,-418.0,-37.0,13.0,-61.0,-104.0,-188.0,0.0,0.0,0.0,0.0,0.0,0.0,0.0,0.0,3
-222.0,-655.0,-190.0,38.0,47.0,22.0,92.0,-9.0,0.0,0.0,0.0,0.0,0.0,0.0,0.0,0.0,3
186.0,36.0,43.0,69.0,53.0,48.0,143.0,69.0,0.0,0.0,0.0,0.0,0.0,0.0,0.0,0.0,3
408.0,470.0,180.0,81.0,38.0,17.0,127.0,53.0,0.0,0.0,0.0,0.0,0.0,0.0,0.0,0.0,3
262.0,475.0,124.0,28.0,-16.0,-43.0,-30.0,-159.0,0.0,0.0,0.0,0.0,0.0,0.0,0.0,0.0,3
-149.0,29.0,30.0,-12.0,-46.0,-81.0,-129.0,-274.0,0.0,0.0,0.0,0.0,0.0,0.0,0.0,0.0,3
-569.0,-283.0,-90.0,-74.0,-78.0,-89.0,-140.0,-205.0,0.0,0.0,0.0,0.0,0.0,0.0,0.0,0.0,3
-496.0,-253.0,-201.0,-154.0,-123.0,-128.0,-206.0,-234.0,0.0,0.0,0.0,0.0,0.0,0.0,0.0,0.0,3
-76.0,299.0,-97.0,-159.0,-124.0,-118.0,-222.0,-247.0,0.0,0.0,0.0,0.0,0.0,0.0,0.0,0.0,3
150.0,172.0,-76.0,-144.0,-107.0,-56.0,-47.0,-121.0,0.0,0.0,0.0,0.0,0.0,0.0,0.0,0.0,3
69.0,-217.0,-181.0,-156.0,-99.0,25.0,202.0,29.0,0.0,0.0,0.0,0.0,0.0,0.0,0.0,0.0,3
-114.0,-321.0,-167.0,-127.0,-68.0,84.0,312.0,85.0,0.0,0.0,0.0,0.0,0.0,0.0,0.0,0.0,3
-263.0,-514.0,-195.0,-116.0,-55.0,90.0,196.0,47.0,0.0,0.0,0.0,0.0,0.0,0.0,0.0,0.0,3
-215.0,-344.0,-215.0,-120.0,-57.0,39.0,-21.0,-63.0,0.0,0.0,0.0,0.0,0.0,0.0,0.0,0.0,3
-53.0,-130.0,-108.0,-58.0,-7.0,49.0,-57.0,-30.0,0.0,0.0,0.0,0.0,0.0,0.0,0.0,0.0,3
202.0,147.0,31.0,23.0,46.0,73.0,-1.0,-77.0,0.0,0.0,0.0,0.0,0.0,0.0,0.0,0.0,3
453.0,355.0,63.0,-7.0,-9.0,-21.0,-158.0,-198.0,0.0,0.0,0.0,0.0,0.0,0.0,0.0,0.0,3
482.0,336.0,56.0,-63.0,-77.0,-133.0,-269.0,-61.0,0.0,0.0,0.0,0.0,0.0,0.0,0.0,0.0,3
290.0,350.0,118.0,22.0,13.0,-31.0,-40.0,381.0,0.0,0.0,0.0,0.0,0.0,0.0,0.0,0.0,3
123.0,452.0,212.0,95.0,72.0,72.0,147.0,462.0,0.0,0.0,0.0,0.0,0.0,0.0,0.0,0.0,3
-187.0,220.0,63.0,31.0,15.0,35.0,59.0,141.0,0.0,0.0,0.0,0.0,0.0,0.0,0.0,0.0,3
-158.0,-157.0,-177.0,-81.0,-52.0,16.0,-55.0,-236.0,0.0,0.0,0.0,0.0,0.0,0.0,0.0,0.0,3
113.0,-25.0,-146.0,-102.0,-77.0,-40.0,-144.0,-279.0,0.0,0.0,0.0,0.0,0.0,0.0,0.0,0.0,3
247.0,145.0,4.0,-43.0,-52.0,-125.0,-226.0,-81.0,0.0,0.0,0.0,0.0,0.0,0.0,0.0,0.0,3
226.0,72.0,46.0,-29.0,-49.0,-114.0,-141.0,36.0,0.0,0.0,0.0,0.0,0.0,0.0,0.0,0.0,3
30.0,-94.0,82.0,23.0,-23.0,-73.0,-1.0,3.0,0.0,0.0,0.0,0.0,0.0,0.0,0.0,0.0,3
-100.0,21.0,239.0,158.0,69.0,6.0,70.0,24.0,0.0,0.0,0.0,0.0,0.0,0.0,0.0,0.0,3
-457.0,-451.0,167.0,117.0,53.0,12.0,23.0,31.0,0.0,0.0,0.0,0.0,0.0,0.0,0.0,0.0,3
-857.0,-1003.0,7.0,1.0,-24.0,-22.0,-69.0,-63.0,0.0,0.0,0.0,0.0,0.0,0.0,0.0,0.0,3
-409.0,-178.0,-65.0,-103.0,-101.0,-69.0,-99.0,-84.0,0.0,0.0,0.0,0.0,0.0,0.0,0.0,0.0,3
34.0,207.0,-121.0,-101.0,-72.0,-60.0,-98.0,-7.0,0.0,0.0,0.0,0.0,0.0,0.0,0.0,0.0,3
-313.0,-567.0,-352.0,-106.0,-24.0,-22.0,-61.0,-13.0,0.0,0.0,0.0,0.0,0.0,0.0,0.0,0.0,3
-1006.0,-887.0,-592.0,-264.0,-125.0,-102.0,-143.0,-197.0,0.0,0.0,0.0,0.0,0.0,0.0,0.0,0.0,3
-835.0,-366.0,-420.0,-236.0,-143.0,-99.0,-104.0,-207.0,0.0,0.0,0.0,0.0,0.0,0.0,0.0,0.0,3
-337.0,-150.0,-182.0,-122.0,-81.0,-12.0,24.0,-116.0,0.0,0.0,0.0,0.0,0.0,0.0,0.0,0.0,3
-36.0,-262.0,-94.0,-112.0,-82.0,-32.0,-24.0,-87.0,0.0,0.0,0.0,0.0,0.0,0.0,0.0,0.0,3
-14.0,-379.0,-53.0,-93.0,-76.0,-25.0,-26.0,-45.0,0.0,0.0,0.0,0.0,0.0,0.0,0.0,0.0,3
108.0,-127.0,86.0,27.0,-2.0,-48.0,-67.0,-43.0,0.0,0.0,0.0,0.0,0.0,0.0,0.0,0.0,3
205.0,76.0,248.0,126.0,59.0,7.0,-12.0,-41.0,0.0,0.0,0.0,0.0,0.0,0.0,0.0,0.0,3
392.0,360.0,371.0,204.0,108.0,50.0,126.0,103.0,0.0,0.0,0.0,0.0,0.0,0.0,0.0,0.0,3
620.0,983.0,376.0,149.0,49.0,-6.0,97.0,146.0,0.0,0.0,0.0,0.0,0.0,0.0,0.0,0.0,3
670.0,940.0,213.0,32.0,-36.0,-88.0,-21.0,66.0,0.0,0.0,0.0,0.0,0.0,0.0,0.0,0.0,3
551.0,586.0,86.0,7.0,-53.0,-122.0,-84.0,24.0,0.0,0.0,0.0,0.0,0.0,0.0,0.0,0.0,3
377.0,236.0,-20.0,13.0,-52.0,-140.0,-87.0,-18.0,0.0,0.0,0.0,0.0,0.0,0.0,0.0,0.0,3
-175.0,-491.0,-156.0,-40.0,-105.0,-168.0,-151.0,-103.0,0.0,0.0,0.0,0.0,0.0,0.0,0.0,0.0,3
-370.0,-340.0,-83.0,-60.0,-127.0,-160.0,-160.0,-83.0,0.0,0.0,0.0,0.0,0.0,0.0,0.0,0.0,3
34.0,565.0,146.0,14.0,-73.0,-8.0,83.0,38.0,0.0,0.0,0.0,0.0,0.0,0.0,0.0,0.0,3
356.0,797.0,176.0,72.0,16.0,219.0,423.0,68.0,0.0,0.0,0.0,0.0,0.0,0.0,0.0,0.0,3
391.0,560.0,77.0,48.0,31.0,173.0,313.0,-51.0,0.0,0.0,0.0,0.0,0.0,0.0,0.0,0.0,3
321.0,214.0,-9.0,-1.0,-11.0,48.0,29.0,-169.0,0.0,0.0,0.0,0.0,0.0,0.0,0.0,0.0,3
243.0,-82.0,-71.0,-45.0,-45.0,-16.0,-131.0,-163.0,0.0,0.0,0.0,0.0,0.0,0.0,0.0,0.0,3
144.0,-49.0,-128.0,-96.0,-46.0,-39.0,-177.0,-116.0,0.0,0.0,0.0,0.0,0.0,0.0,0.0,0.0,3
-9.0,-232.0,-161.0,-82.0,-15.0,-45.0,-201.0,-134.0,0.0,0.0,0.0,0.0,0.0,0.0,0.0,0.0,3
-54.0,-334.0,-171.0,-73.0,-10.0,-65.0,-142.0,-57.0,0.0,0.0,0.0,0.0,0.0,0.0,0.0,0.0,3
26.0,-342.0,-158.0,-61.0,-18.0,-64.0,36.0,71.0,0.0,0.0,0.0,0.0,0.0,0.0,0.0,0.0,3
235.0,-309.0,-144.0,-34.0,5.0,-25.0,250.0,302.0,0.0,0.0,0.0,0.0,0.0,0.0,0.0,0.0,3
-7.0,-551.0,-219.0,-57.0,0.0,8.0,390.0,254.0,0.0,0.0,0.0,0.0,0.0,0.0,0.0,0.0,3
-579.0,-670.0,-215.0,-68.0,-8.0,1.0,230.0,66.0,0.0,0.0,0.0,0.0,0.0,0.0,0.0,0.0,3
-1044.0,-729.0,-207.0,-123.0,-76.0,-105.0,-206.0,-21.0,0.0,0.0,0.0,0.0,0.0,0.0,0.0,0.0,3
-803.0,-291.0,-176.0,-211.0,-162.0,-134.0,-461.0,-74.0,0.0,0.0,0.0,0.0,0.0,0.0,0.0,0.0,3
-310.0,191.0,-96.0,-225.0,-159.0,-4.0,-242.0,-94.0,0.0,0.0,0.0,0.0,0.0,0.0,0.0,0.0,3
84.0,93.0,-48.0,-134.0,-78.0,-3.0,-213.0,-75.0,0.0,0.0,0.0,0.0,0.0,0.0,0.0,0.0,3
112.0,-29.0,-33.0,-54.0,-31.0,-29.0,-221.0,-87.0,0.0,0.0,0.0,0.0,0.0,0.0,0.0,0.0,3
-26.0,-39.0,-35.0,-36.0,-40.0,-49.0,-59.0,-102.0,0.0,0.0,0.0,0.0,0.0,0.0,0.0,0.0,3
-423.0,-263.0,-87.0,-60.0,-72.0,-99.0,104.0,-149.0,0.0,0.0,0.0,0.0,0.0,0.0,0.0,0.0,3
-530.0,-190.0,-69.0,-43.0,-59.0,-131.0,-11.0,-101.0,0.0,0.0,0.0,0.0,0.0,0.0,0.0,0.0,3
-225.0,118.0,14.0,8.0,-29.0,-144.0,-85.0,-1.0,0.0,0.0,0.0,0.0,0.0,0.0,0.0,0.0,3
-2.0,147.0,114.0,51.0,-4.0,-125.0,-73.0,2.0,0.0,0.0,0.0,0.0,0.0,0.0,0.0,0.0,3
-25.0,-15.0,115.0,71.0,19.0,-72.0,-69.0,-47.0,0.0,0.0,0.0,0.0,0.0,0.0,0.0,0.0,3
156.0,350.0,145.0,94.0,50.0,-24.0,-20.0,-3.0,0.0,0.0,0.0,0.0,0.0,0.0,0.0,0.0,3
333.0,392.0,138.0,91.0,55.0,-8.0,-20.0,88.0,0.0,0.0,0.0,0.0,0.0,0.0,0.0,0.0,3
433.0,30.0,38.0,53.0,24.0,-24.0,-56.0,28.0,0.0,0.0,0.0,0.0,0.0,0.0,0.0,0.0,3
167.0,-55.0,-27.0,8.0,-7.0,-38.0,-65.0,-38.0,0.0,0.0,0.0,0.0,0.0,0.0,0.0,0.0,3
-190.0,-329.0,-130.0,-67.0,-47.0,-49.0,-59.0,-94.0,0.0,0.0,0.0,0.0,0.0,0.0,0.0,0.0,3
-40.0,-92.0,-179.0,-117.0,-68.0,-53.0,-61.0,-119.0,0.0,0.0,0.0,0.0,0.0,0.0,0.0,0.0,3
31.0,-52.0,-129.0,-126.0,-68.0,-60.0,-82.0,-115.0,0.0,0.0,0.0,0.0,0.0,0.0,0.0,0.0,3
-261.0,-416.0,-212.0,-157.0,-88.0,-86.0,-159.0,-189.0,0.0,0.0,0.0,0.0,0.0,0.0,0.0,0.0,3
-408.0,-542.0,-257.0,-144.0,-70.0,-78.0,-146.0,-207.0,0.0,0.0,0.0,0.0,0.0,0.0,0.0,0.0,3
-59.0,-15.0,-120.0,-56.0,-20.0,-25.0,-11.0,-105.0,0.0,0.0,0.0,0.0,0.0,0.0,0.0,0.0,3
184.0,178.0,-28.0,5.0,13.0,4.0,20.0,-58.0,0.0,0.0,0.0,0.0,0.0,0.0,0.0,0.0,3
172.0,5.0,90.0,52.0,21.0,8.0,37.0,-22.0,0.0,0.0,0.0,0.0,0.0,0.0,0.0,0.0,3
98.0,-106.0,182.0,95.0,22.0,10.0,46.0,-16.0,0.0,0.0,0.0,0.0,0.0,0.0,0.0,0.0,3
120.0,260.0,242.0,116.0,23.0,10.0,32.0,-28.0,0.0,0.0,0.0,0.0,0.0,0.0,0.0,0.0,3
-50.0,465.0,265.0,62.0,-23.0,-5.0,27.0,-43.0,0.0,0.0,0.0,0.0,0.0,0.0,0.0,0.0,3
35.0,283.0,188.0,15.0,-57.0,1.0,58.0,3.0,0.0,0.0,0.0,0.0,0.0,0.0,0.0,0.0,3
117.0,187.0,145.0,-17.0,-74.0,6.0,77.0,27.0,0.0,0.0,0.0,0.0,0.0,0.0,0.0,0.0,3
-57.0,212.0,198.0,1.0,-44.0,28.0,110.0,15.0,0.0,0.0,0.0,0.0,0.0,0.0,0.0,0.0,3
-91.0,209.0,169.0,-5.0,-46.0,36.0,147.0,14.0,0.0,0.0,0.0,0.0,0.0,0.0,0.0,0.0,3
52.0,279.0,123.0,-27.0,-66.0,7.0,116.0,59.0,0.0,0.0,0.0,0.0,0.0,0.0,0.0,0.0,3
133.0,175.0,41.0,-39.0,-73.0,-13.0,57.0,65.0,0.0,0.0,0.0,0.0,0.0,0.0,0.0,0.0,3
117.0,-83.0,-155.0,-92.0,-85.0,-50.0,-30.0,43.0,0.0,0.0,0.0,0.0,0.0,0.0,0.0,0.0,3
256.0,-3.0,-154.0,-32.0,-20.0,-32.0,-91.0,39.0,0.0,0.0,0.0,0.0,0.0,0.0,0.0,0.0,3
271.0,101.0,-59.0,78.0,49.0,-6.0,-131.0,51.0,0.0,0.0,0.0,0.0,0.0,0.0,0.0,0.0,3
150.0,-103.0,-72.0,78.0,54.0,-6.0,-117.0,35.0,0.0,0.0,0.0,0.0,0.0,0.0,0.0,0.0,3
326.0,-49.0,-83.0,31.0,39.0,21.0,-66.0,34.0,0.0,0.0,0.0,0.0,0.0,0.0,0.0,0.0,3
-268.0,-519.0,-263.0,-115.0,-47.0,-53.0,-122.0,-39.0,0.0,0.0,0.0,0.0,0.0,0.0,0.0,0.0,3
-987.0,-1183.0,-518.0,-268.0,-164.0,-164.0,-213.0,-187.0,0.0,0.0,0.0,0.0,0.0,0.0,0.0,0.0,3
-745.0,-967.0,-626.0,-351.0,-230.0,-192.0,-172.0,-252.0,0.0,0.0,0.0,0.0,0.0,0.0,0.0,0.0,3
-507.0,-551.0,-451.0,-260.0,-177.0,-132.0,-28.0,-200.0,0.0,0.0,0.0,0.0,0.0,0.0,0.0,0.0,3
-35.0,64.0,-124.0,-68.0,-47.0,-20.0,93.0,-64.0,0.0,0.0,0.0,0.0,0.0,0.0,0.0,0.0,3
455.0,504.0,128.0,65.0,26.0,2.0,91.0,31.0,0.0,0.0,0.0,0.0,0.0,0.0,0.0,0.0,3
518.0,338.0,181.0,80.0,19.0,-45.0,56.0,53.0,0.0,0.0,0.0,0.0,0.0,0.0,0.0,0.0,3
69.0,-290.0,113.0,48.0,-3.0,-49.0,49.0,52.0,0.0,0.0,0.0,0.0,0.0,0.0,0.0,0.0,3
-585.0,-553.0,4.0,-38.0,-76.0,-90.0,-16.0,-17.0,0.0,0.0,0.0,0.0,0.0,0.0,0.0,0.0,3
-870.0,-375.0,-74.0,-109.0,-136.0,-35.0,-91.0,-88.0,0.0,0.0,0.0,0.0,0.0,0.0,0.0,0.0,3
-966.0,-266.0,-39.0,-93.0,-99.0,131.0,64.0,-30.0,0.0,0.0,0.0,0.0,0.0,0.0,0.0,0.0,3
-429.0,302.0,48.0,-86.0,-96.0,10.0,8.0,-18.0,0.0,0.0,0.0,0.0,0.0,0.0,0.0,0.0,3
17.0,344.0,38.0,-94.0,-100.0,-83.0,-84.0,-48.0,0.0,0.0,0.0,0.0,0.0,0.0,0.0,0.0,3
306.0,531.0,6.0,-123.0,-122.0,-99.0,-100.0,-63.0,0.0,0.0,0.0,0.0,0.0,0.0,0.0,0.0,3
372.0,449.0,-7.0,-79.0,-68.0,-54.0,-24.0,-7.0,0.0,0.0,0.0,0.0,0.0,0.0,0.0,0.0,3
328.0,256.0,14.0,-7.0,1.0,0.0,20.0,36.0,0.0,0.0,0.0,0.0,0.0,0.0,0.0,0.0,3
353.0,184.0,35.0,17.0,26.0,1.0,-16.0,25.0,0.0,0.0,0.0,0.0,0.0,0.0,0.0,0.0,3
280.0,132.0,28.0,-2.0,4.0,-26.0,-99.0,13.0,0.0,0.0,0.0,0.0,0.0,0.0,0.0,0.0,3
229.0,78.0,-34.0,-32.0,-13.0,-40.0,-168.0,-13.0,0.0,0.0,0.0,0.0,0.0,0.0,0.0,0.0,3
263.0,63.0,-59.0,-54.0,-7.0,-44.0,-96.0,2.0,0.0,0.0,0.0,0.0,0.0,0.0,0.0,0.0,3
246.0,95.0,-24.0,-51.0,-4.0,-51.0,23.0,19.0,0.0,0.0,0.0,0.0,0.0,0.0,0.0,0.0,3
179.0,80.0,29.0,-27.0,0.0,-55.0,68.0,10.0,0.0,0.0,0.0,0.0,0.0,0.0,0.0,0.0,3
164.0,-19.0,68.0,6.0,3.0,-57.0,-91.0,-81.0,0.0,0.0,0.0,0.0,0.0,0.0,0.0,0.0,3
120.0,-169.0,101.0,29.0,3.0,-64.0,-226.0,-134.0,0.0,0.0,0.0,0.0,0.0,0.0,0.0,0.0,3
26.0,-297.0,148.0,98.0,31.0,-25.0,-167.0,-122.0,0.0,0.0,0.0,0.0,0.0,0.0,0.0,0.0,3
-16.0,-163.0,231.0,189.0,72.0,7.0,-49.0,-75.0,0.0,0.0,0.0,0.0,0.0,0.0,0.0,0.0,3
17.0,64.0,261.0,213.0,83.0,-3.0,-16.0,-54.0,0.0,0.0,0.0,0.0,0.0,0.0,0.0,0.0,3
28.0,144.0,194.0,128.0,14.0,-32.0,-18.0,-45.0,0.0,0.0,0.0,0.0,0.0,0.0,0.0,0.0,3
-44.0,46.0,66.0,12.0,-38.0,-43.0,-14.0,-36.0,0.0,0.0,0.0,0.0,0.0,0.0,0.0,0.0,3
-128.0,-114.0,-72.0,-71.0,-77.0,-49.0,-44.0,-46.0,0.0,0.0,0.0,0.0,0.0,0.0,0.0,0.0,3
-120.0,-169.0,-148.0,-95.0,-98.0,-48.0,-43.0,-56.0,0.0,0.0,0.0,0.0,0.0,0.0,0.0,0.0,3
-151.0,-203.0,-194.0,-86.0,-88.0,-33.0,-21.0,-50.0,0.0,0.0,0.0,0.0,0.0,0.0,0.0,0.0,3
-156.0,-242.0,-203.0,-49.0,-67.0,-32.0,-27.0,-60.0,0.0,0.0,0.0,0.0,0.0,0.0,0.0,0.0,3
-90.0,-230.0,-208.0,-49.0,-61.0,-45.0,-36.0,-56.0,0.0,0.0,0.0,0.0,0.0,0.0,0.0,0.0,3
-61.0,-248.0,-210.0,-85.0,-68.0,-16.0,-12.0,-44.0,0.0,0.0,0.0,0.0,0.0,0.0,0.0,0.0,3
-80.0,-280.0,-181.0,-88.0,-60.0,-10.0,-13.0,-31.0,0.0,0.0,0.0,0.0,0.0,0.0,0.0,0.0,3
-70.0,-259.0,-153.0,-79.0,-46.0,-17.0,-20.0,-34.0,0.0,0.0,0.0,0.0,0.0,0.0,0.0,0.0,3
-48.0,-117.0,-131.0,-68.0,-35.0,-26.0,-24.0,-22.0,0.0,0.0,0.0,0.0,0.0,0.0,0.0,0.0,3
-102.0,-1.0,-103.0,-57.0,-20.0,-31.0,-29.0,-29.0,0.0,0.0,0.0,0.0,0.0,0.0,0.0,0.0,3
-143.0,269.0,-67.0,-31.0,-8.0,-34.0,-39.0,-49.0,0.0,0.0,0.0,0.0,0.0,0.0,0.0,0.0,3
-100.0,438.0,-9.0,-1.0,14.0,-27.0,-20.0,-50.0,0.0,0.0,0.0,0.0,0.0,0.0,0.0,0.0,3
-104.0,134.0,6.0,10.0,12.0,-27.0,-9.0,-41.0,0.0,0.0,0.0,0.0,0.0,0.0,0.0,0.0,3
-173.0,-205.0,-19.0,0.0,18.0,-24.0,4.0,-39.0,0.0,0.0,0.0,0.0,0.0,0.0,0.0,0.0,3
-187.0,-281.0,-20.0,-13.0,12.0,-23.0,-1.0,-43.0,0.0,0.0,0.0,0.0,0.0,0.0,0.0,0.0,3
-210.0,-116.0,-68.0,-96.0,-51.0,-64.0,-37.0,-84.0,0.0,0.0,0.0,0.0,0.0,0.0,0.0,0.0,3
-270.0,-41.0,-83.0,-146.0,-90.0,-92.0,-77.0,-138.0,0.0,0.0,0.0,0.0,0.0,0.0,0.0,0.0,3
-379.0,-80.0,-51.0,-140.0,-116.0,-106.0,-92.0,-125.0,0.0,0.0,0.0,0.0,0.0,0.0,0.0,0.0,3
-256.0,103.0,-32.0,-123.0,-102.0,-87.0,-78.0,-76.0,0.0,0.0,0.0,0.0,0.0,0.0,0.0,0.0,3
21.0,126.0,-44.0,-98.0,-91.0,-61.0,-70.0,-45.0,0.0,0.0,0.0,0.0,0.0,0.0,0.0,0.0,3
97.0,2.0,-57.0,-92.0,-89.0,-54.0,-65.0,-36.0,0.0,0.0,0.0,0.0,0.0,0.0,0.0,0.0,3
121.0,-95.0,-109.0,-116.0,-89.0,-45.0,-62.0,-15.0,0.0,0.0,0.0,0.0,0.0,0.0,0.0,0.0,3
-3.0,-240.0,-153.0,-114.0,-77.0,-25.0,-46.0,31.0,0.0,0.0,0.0,0.0,0.0,0.0,0.0,0.0,3
-245.0,-423.0,-197.0,-140.0,-89.0,-36.0,-49.0,8.0,0.0,0.0,0.0,0.0,0.0,0.0,0.0,0.0,3
-173.0,-306.0,-213.0,-155.0,-112.0,-64.0,-89.0,-40.0,0.0,0.0,0.0,0.0,0.0,0.0,0.0,0.0,3
-26.0,-171.0,-124.0,-96.0,-79.0,-58.0,-98.0,-44.0,0.0,0.0,0.0,0.0,0.0,0.0,0.0,0.0,3
73.0,11.0,1.0,-1.0,-16.0,-21.0,-78.0,-11.0,0.0,0.0,0.0,0.0,0.0,0.0,0.0,0.0,3
240.0,322.0,72.0,31.0,14.0,-14.0,-61.0,0.0,0.0,0.0,0.0,0.0,0.0,0.0,0.0,0.0,3
278.0,513.0,88.0,37.0,24.0,-4.0,30.0,70.0,0.0,0.0,0.0,0.0,0.0,0.0,0.0,0.0,3
184.0,483.0,99.0,49.0,31.0,14.0,107.0,109.0,0.0,0.0,0.0,0.0,0.0,0.0,0.0,0.0,3
95.0,250.0,111.0,57.0,41.0,6.0,98.0,64.0,0.0,0.0,0.0,0.0,0.0,0.0,0.0,0.0,3
-167.0,-438.0,37.0,31.0,24.0,-43.0,-14.0,-32.0,0.0,0.0,0.0,0.0,0.0,0.0,0.0,0.0,3
-313.0,-684.0,-37.0,-28.0,-18.0,-89.0,-163.0,-134.0,0.0,0.0,0.0,0.0,0.0,0.0,0.0,0.0,3
-142.0,-374.0,-31.0,-42.0,-9.0,-83.0,-165.0,-95.0,0.0,0.0,0.0,0.0,0.0,0.0,0.0,0.0,3
-24.0,-109.0,11.0,-5.0,36.0,-35.0,-77.0,-39.0,0.0,0.0,0.0,0.0,0.0,0.0,0.0,0.0,3
50.0,147.0,52.0,8.0,45.0,-14.0,-3.0,-25.0,0.0,0.0,0.0,0.0,0.0,0.0,0.0,0.0,3
83.0,261.0,67.0,1.0,15.0,-29.0,14.0,-31.0,0.0,0.0,0.0,0.0,0.0,0.0,0.0,0.0,3
178.0,230.0,51.0,-12.0,-1.0,-36.0,19.0,-16.0,0.0,0.0,0.0,0.0,0.0,0.0,0.0,0.0,3
132.0,78.0,13.0,-7.0,8.0,-18.0,18.0,-12.0,0.0,0.0,0.0,0.0,0.0,0.0,0.0,0.0,3
39.0,11.0,-35.0,-20.0,-4.0,-15.0,14.0,-24.0,0.0,0.0,0.0,0.0,0.0,0.0,0.0,0.0,3
48.0,73.0,-54.0,-28.0,-18.0,-20.0,0.0,-23.0,0.0,0.0,0.0,0.0,0.0,0.0,0.0,0.0,3
65.0,72.0,-53.0,-32.0,-27.0,-28.0,-11.0,-39.0,0.0,0.0,0.0,0.0,0.0,0.0,0.0,0.0,3
25.0,65.0,-23.0,-18.0,-30.0,-25.0,-17.0,-35.0,0.0,0.0,0.0,0.0,0.0,0.0,0.0,0.0,3
-39.0,39.0,-10.0,-16.0,-29.0,-29.0,-25.0,-34.0,0.0,0.0,0.0,0.0,0.0,0.0,0.0,0.0,3
-42.0,-20.0,-34.0,-6.0,-26.0,-24.0,-22.0,-41.0,0.0,0.0,0.0,0.0,0.0,0.0,0.0,0.0,3
6.0,-88.0,-58.0,-1.0,-9.0,-11.0,-21.0,-28.0,0.0,0.0,0.0,0.0,0.0,0.0,0.0,0.0,3
46.0,-74.0,-56.0,12.0,2.0,-12.0,-21.0,-28.0,0.0,0.0,0.0,0.0,0.0,0.0,0.0,0.0,3
96.0,-57.0,-32.0,26.0,4.0,-16.0,-29.0,-28.0,0.0,0.0,0.0,0.0,0.0,0.0,0.0,0.0,3
38.0,-74.0,-8.0,29.0,8.0,-26.0,-24.0,-14.0,0.0,0.0,0.0,0.0,0.0,0.0,0.0,0.0,3
-104.0,-122.0,-24.0,13.0,-2.0,-27.0,-16.0,-10.0,0.0,0.0,0.0,0.0,0.0,0.0,0.0,0.0,3
-141.0,-98.0,-44.0,-9.0,-13.0,-28.0,-3.0,-16.0,0.0,0.0,0.0,0.0,0.0,0.0,0.0,0.0,3
-93.0,-23.0,-45.0,-18.0,-13.0,-33.0,0.0,-36.0,0.0,0.0,0.0,0.0,0.0,0.0,0.0,0.0,3
-76.0,-17.0,-60.0,-40.0,-29.0,-40.0,-5.0,-47.0,0.0,0.0,0.0,0.0,0.0,0.0,0.0,0.0,3
-70.0,-18.0,-86.0,-76.0,-46.0,-50.0,-15.0,-64.0,0.0,0.0,0.0,0.0,0.0,0.0,0.0,0.0,3
-60.0,-39.0,-84.0,-86.0,-53.0,-64.0,-53.0,-62.0,0.0,0.0,0.0,0.0,0.0,0.0,0.0,0.0,3
-73.0,-53.0,-73.0,-77.0,-46.0,-82.0,-95.0,-74.0,0.0,0.0,0.0,0.0,0.0,0.0,0.0,0.0,3
-82.0,-46.0,-76.0,-91.0,-61.0,-77.0,-84.0,-60.0,0.0,0.0,0.0,0.0,0.0,0.0,0.0,0.0,3
-88.0,-22.0,-74.0,-98.0,-71.0,-57.0,-31.0,-54.0,0.0,0.0,0.0,0.0,0.0,0.0,0.0,0.0,3
-134.0,-50.0,-60.0,-90.0,-75.0,-23.0,61.0,-30.0,0.0,0.0,0.0,0.0,0.0,0.0,0.0,0.0,3
-140.0,-60.0,-14.0,-45.0,-59.0,33.0,166.0,25.0,0.0,0.0,0.0,0.0,0.0,0.0,0.0,0.0,3
-126.0,-63.0,5.0,-32.0,-65.0,36.0,151.0,35.0,0.0,0.0,0.0,0.0,0.0,0.0,0.0,0.0,3
-135.0,-84.0,-5.0,-3.0,-57.0,11.0,49.0,-3.0,0.0,0.0,0.0,0.0,0.0,0.0,0.0,0.0,3
-119.0,-94.0,-6.0,27.0,-38.0,-2.0,-8.0,-6.0,0.0,0.0,0.0,0.0,0.0,0.0,0.0,0.0,3
-81.0,-90.0,-14.0,21.0,-41.0,-15.0,-28.0,-9.0,0.0,0.0,0.0,0.0,0.0,0.0,0.0,0.0,3
-32.0,-98.0,-40.0,8.0,-42.0,-32.0,-50.0,-20.0,0.0,0.0,0.0,0.0,0.0,0.0,0.0,0.0,3
-4.0,-99.0,-78.0,-15.0,-46.0,-38.0,-77.0,-27.0,0.0,0.0,0.0,0.0,0.0,0.0,0.0,0.0,3
-12.0,-79.0,-110.0,-42.0,-54.0,-36.0,-86.0,-32.0,0.0,0.0,0.0,0.0,0.0,0.0,0.0,0.0,3
-41.0,-98.0,-125.0,-67.0,-54.0,-52.0,-102.0,-48.0,0.0,0.0,0.0,0.0,0.0,0.0,0.0,0.0,3
-70.0,-90.0,-104.0,-58.0,-41.0,-51.0,-105.0,-49.0,0.0,0.0,0.0,0.0,0.0,0.0,0.0,0.0,3
-115.0,-69.0,-67.0,-49.0,-33.0,-51.0,-96.0,-44.0,0.0,0.0,0.0,0.0,0.0,0.0,0.0,0.0,3
-148.0,-28.0,-58.0,-65.0,-42.0,-55.0,-91.0,-51.0,0.0,0.0,0.0,0.0,0.0,0.0,0.0,0.0,3
-178.0,2.0,-57.0,-77.0,-57.0,-65.0,-86.0,-65.0,0.0,0.0,0.0,0.0,0.0,0.0,0.0,0.0,3
-139.0,2.0,-58.0,-86.0,-50.0,-57.0,-71.0,-69.0,0.0,0.0,0.0,0.0,0.0,0.0,0.0,0.0,3
46.0,47.0,-65.0,-99.0,-57.0,-52.0,-60.0,-71.0,0.0,0.0,0.0,0.0,0.0,0.0,0.0,0.0,3
114.0,0.0,-64.0,-108.0,-73.0,-48.0,-65.0,-76.0,0.0,0.0,0.0,0.0,0.0,0.0,0.0,0.0,3
18.0,-45.0,-41.0,-74.0,-70.0,-45.0,-61.0,-65.0,0.0,0.0,0.0,0.0,0.0,0.0,0.0,0.0,3
1.0,63.0,-11.0,-61.0,-67.0,-42.0,-52.0,-57.0,0.0,0.0,0.0,0.0,0.0,0.0,0.0,0.0,3
17.0,39.0,-11.0,-55.0,-62.0,-33.0,-49.0,-48.0,0.0,0.0,0.0,0.0,0.0,0.0,0.0,0.0,3
23.0,0.0,-16.0,-41.0,-52.0,-34.0,-46.0,-39.0,0.0,0.0,0.0,0.0,0.0,0.0,0.0,0.0,3
4.0,-15.0,-37.0,-50.0,-48.0,-36.0,-53.0,-46.0,0.0,0.0,0.0,0.0,0.0,0.0,0.0,0.0,3
-28.0,-27.0,-47.0,-40.0,-40.0,-35.0,-59.0,-39.0,0.0,0.0,0.0,0.0,0.0,0.0,0.0,0.0,3
-21.0,-40.0,-52.0,-31.0,-39.0,-27.0,-62.0,-32.0,0.0,0.0,0.0,0.0,0.0,0.0,0.0,0.0,3
-10.0,-47.0,-58.0,-26.0,-52.0,-22.0,-53.0,-23.0,0.0,0.0,0.0,0.0,0.0,0.0,0.0,0.0,3
-10.0,-57.0,-65.0,-17.0,-44.0,-12.0,-61.0,-26.0,0.0,0.0,0.0,0.0,0.0,0.0,0.0,0.0,3
-11.0,-70.0,-61.0,0.0,-38.0,-9.0,-63.0,-25.0,0.0,0.0,0.0,0.0,0.0,0.0,0.0,0.0,3
-14.0,-82.0,-56.0,19.0,-25.0,-2.0,-56.0,-19.0,0.0,0.0,0.0,0.0,0.0,0.0,0.0,0.0,3
-29.0,-81.0,-38.0,52.0,1.0,7.0,-35.0,-14.0,0.0,0.0,0.0,0.0,0.0,0.0,0.0,0.0,3
-20.0,-66.0,-20.0,64.0,19.0,4.0,-26.0,-8.0,0.0,0.0,0.0,0.0,0.0,0.0,0.0,0.0,3
-27.0,-64.0,-2.0,69.0,30.0,0.0,-18.0,-4.0,0.0,0.0,0.0,0.0,0.0,0.0,0.0,0.0,3
-44.0,-27.0,29.0,57.0,34.0,-8.0,-17.0,-4.0,0.0,0.0,0.0,0.0,0.0,0.0,0.0,0.0,3
-46.0,72.0,54.0,59.0,44.0,-18.0,-13.0,-10.0,0.0,0.0,0.0,0.0,0.0,0.0,0.0,0.0,3
-24.0,95.0,55.0,43.0,43.0,-21.0,-6.0,-8.0,0.0,0.0,0.0,0.0,0.0,0.0,0.0,0.0,3
8.0,51.0,66.0,45.0,40.0,-12.0,11.0,6.0,0.0,0.0,0.0,0.0,0.0,0.0,0.0,0.0,3
31.0,40.0,74.0,49.0,36.0,-9.0,48.0,3.0,0.0,0.0,0.0,0.0,0.0,0.0,0.0,0.0,3
16.0,21.0,44.0,15.0,5.0,-23.0,34.0,-1.0,0.0,0.0,0.0,0.0,0.0,0.0,0.0,0.0,3
-30.0,-8.0,22.0,-13.0,-1.0,-26.0,16.0,-18.0,0.0,0.0,0.0,0.0,0.0,0.0,0.0,0.0,3
-39.0,4.0,12.0,-18.0,-16.0,-37.0,-14.0,-45.0,0.0,0.0,0.0,0.0,0.0,0.0,0.0,0.0,3
8.0,13.0,6.0,-25.0,-37.0,-53.0,-27.0,-68.0,0.0,0.0,0.0,0.0,0.0,0.0,0.0,0.0,3
2.0,-5.0,-18.0,-35.0,-52.0,-48.0,-33.0,-74.0,0.0,0.0,0.0,0.0,0.0,0.0,0.0,0.0,3
-33.0,-37.0,-46.0,-43.0,-51.0,-46.0,-39.0,-70.0,0.0,0.0,0.0,0.0,0.0,0.0,0.0,0.0,3
-46.0,-49.0,-54.0,-50.0,-56.0,-45.0,-41.0,-64.0,0.0,0.0,0.0,0.0,0.0,0.0,0.0,0.0,3
-34.0,-55.0,-55.0,-62.0,-66.0,-28.0,-27.0,-42.0,0.0,0.0,0.0,0.0,0.0,0.0,0.0,0.0,3
-27.0,-66.0,-69.0,-72.0,-80.0,-20.0,-7.0,-29.0,0.0,0.0,0.0,0.0,0.0,0.0,0.0,0.0,3
-31.0,-82.0,-86.0,-90.0,-76.0,-18.0,-8.0,-43.0,0.0,0.0,0.0,0.0,0.0,0.0,0.0,0.0,3
-18.0,-92.0,-96.0,-101.0,-77.0,-31.0,-36.0,-57.0,0.0,0.0,0.0,0.0,0.0,0.0,0.0,0.0,3
-17.0,-90.0,-105.0,-106.0,-90.0,-38.0,-48.0,-50.0,0.0,0.0,0.0,0.0,0.0,0.0,0.0,0.0,3
-27.0,-88.0,-101.0,-101.0,-90.0,-43.0,-55.0,-43.0,0.0,0.0,0.0,0.0,0.0,0.0,0.0,0.0,3
-18.0,-74.0,-92.0,-93.0,-79.0,-47.0,-64.0,-42.0,0.0,0.0,0.0,0.0,0.0,0.0,0.0,0.0,3
-34.0,-66.0,-85.0,-86.0,-68.0,-51.0,-53.0,-34.0,0.0,0.0,0.0,0.0,0.0,0.0,0.0,0.0,3
-65.0,-68.0,-79.0,-76.0,-55.0,-50.0,-39.0,-32.0,0.0,0.0,0.0,0.0,0.0,0.0,0.0,0.0,3
-76.0,-61.0,-74.0,-61.0,-45.0,-45.0,-45.0,-34.0,0.0,0.0,0.0,0.0,0.0,0.0,0.0,0.0,3
-66.0,-36.0,-58.0,-48.0,-33.0,-43.0,-48.0,-43.0,0.0,0.0,0.0,0.0,0.0,0.0,0.0,0.0,3
-38.0,-9.0,-32.0,-40.0,-20.0,-32.0,-32.0,-45.0,0.0,0.0,0.0,0.0,0.0,0.0,0.0,0.0,3
-5.0,6.0,-19.0,-33.0,-8.0,-28.0,-27.0,-45.0,0.0,0.0,0.0,0.0,0.0,0.0,0.0,0.0,3
-13.0,-21.0,-32.0,-26.0,-5.0,-27.0,-28.0,-38.0,0.0,0.0,0.0,0.0,0.0,0.0,0.0,0.0,3
-53.0,-43.0,-56.0,-32.0,-1.0,-28.0,-30.0,-40.0,0.0,0.0,0.0,0.0,0.0,0.0,0.0,0.0,3
-75.0,-40.0,-48.0,-35.0,-8.0,-31.0,-36.0,-48.0,0.0,0.0,0.0,0.0,0.0,0.0,0.0,0.0,3
-53.0,-29.0,-43.0,-31.0,-16.0,-32.0,-33.0,-43.0,0.0,0.0,0.0,0.0,0.0,0.0,0.0,0.0,3
-50.0,-20.0,-33.0,-37.0,-26.0,-33.0,-38.0,-37.0,0.0,0.0,0.0,0.0,0.0,0.0,0.0,0.0,3
-68.0,-17.0,-19.0,-45.0,-43.0,-32.0,-48.0,-43.0,0.0,0.0,0.0,0.0,0.0,0.0,0.0,0.0,3
-66.0,-23.0,-35.0,-61.0,-57.0,-32.0,-53.0,-48.0,0.0,0.0,0.0,0.0,0.0,0.0,0.0,0.0,3
-56.0,-32.0,-43.0,-68.0,-63.0,-38.0,-46.0,-39.0,0.0,0.0,0.0,0.0,0.0,0.0,0.0,0.0,3
-47.0,-35.0,-37.0,-63.0,-75.0,-45.0,-52.0,-36.0,0.0,0.0,0.0,0.0,0.0,0.0,0.0,0.0,3
-33.0,-49.0,-29.0,-48.0,-77.0,-40.0,-55.0,-27.0,0.0,0.0,0.0,0.0,0.0,0.0,0.0,0.0,3
-5.0,-64.0,-35.0,-34.0,-58.0,-16.0,-42.0,-12.0,0.0,0.0,0.0,0.0,0.0,0.0,0.0,0.0,3
-12.0,-58.0,-29.0,0.0,-22.0,3.0,-18.0,8.0,0.0,0.0,0.0,0.0,0.0,0.0,0.0,0.0,3
-40.0,-65.0,-17.0,18.0,-10.0,-1.0,-12.0,10.0,0.0,0.0,0.0,0.0,0.0,0.0,0.0,0.0,3
-61.0,-50.0,-13.0,7.0,-23.0,-18.0,-30.0,-9.0,0.0,0.0,0.0,0.0,0.0,0.0,0.0,0.0,3
-44.0,-8.0,-2.0,-5.0,-27.0,-38.0,-47.0,-22.0,0.0,0.0,0.0,0.0,0.0,0.0,0.0,0.0,3
-15.0,14.0,0.0,-4.0,-13.0,-50.0,-42.0,-18.0,0.0,0.0,0.0,0.0,0.0,0.0,0.0,0.0,3
-10.0,2.0,-7.0,5.0,6.0,-42.0,-32.0,-17.0,0.0,0.0,0.0,0.0,0.0,0.0,0.0,0.0,3
-33.0,-24.0,-9.0,7.0,14.0,-26.0,-14.0,-19.0,0.0,0.0,0.0,0.0,0.0,0.0,0.0,0.0,3
-42.0,-16.0,0.0,-3.0,12.0,-33.0,-7.0,-21.0,0.0,0.0,0.0,0.0,0.0,0.0,0.0,0.0,3
-13.0,5.0,17.0,-7.0,5.0,-33.0,-4.0,-31.0,0.0,0.0,0.0,0.0,0.0,0.0,0.0,0.0,3
-10.0,12.0,13.0,-3.0,2.0,-27.0,-1.0,-31.0,0.0,0.0,0.0,0.0,0.0,0.0,0.0,0.0,3
-25.0,15.0,2.0,-23.0,-13.0,-24.0,6.0,-33.0,0.0,0.0,0.0,0.0,0.0,0.0,0.0,0.0,3
-27.0,16.0,3.0,-24.0,-10.0,-27.0,20.0,-38.0,0.0,0.0,0.0,0.0,0.0,0.0,0.0,0.0,3
-22.0,14.0,14.0,-11.0,-11.0,-27.0,11.0,-34.0,0.0,0.0,0.0,0.0,0.0,0.0,0.0,0.0,3
-45.0,-6.0,9.0,-6.0,-11.0,-19.0,1.0,-22.0,0.0,0.0,0.0,0.0,0.0,0.0,0.0,0.0,3
-68.0,-36.0,-13.0,-14.0,-16.0,-15.0,-3.0,-18.0,0.0,0.0,0.0,0.0,0.0,0.0,0.0,0.0,3
-53.0,-44.0,-35.0,-33.0,-42.0,-33.0,-15.0,-28.0,0.0,0.0,0.0,0.0,0.0,0.0,0.0,0.0,3
-8.0,-44.0,-39.0,-43.0,-68.0,-48.0,-33.0,-46.0,0.0,0.0,0.0,0.0,0.0,0.0,0.0,0.0,3
-59.0,-76.0,-65.0,-57.0,-47.0,-26.0,-31.0,-34.0,0.0,0.0,0.0,0.0,0.0,0.0,0.0,0.0,3
-126.0,-93.0,-92.0,-52.0,-4.0,10.0,-15.0,-22.0,0.0,0.0,0.0,0.0,0.0,0.0,0.0,0.0,3
-69.0,-59.0,-61.0,-19.0,32.0,30.0,-10.0,-25.0,0.0,0.0,0.0,0.0,0.0,0.0,0.0,0.0,3
-6.0,-65.0,-39.0,-2.0,39.0,24.0,-17.0,-17.0,0.0,0.0,0.0,0.0,0.0,0.0,0.0,0.0,3
-9.0,-89.0,-46.0,-14.0,18.0,9.0,-24.0,-17.0,0.0,0.0,0.0,0.0,0.0,0.0,0.0,0.0,3
