CH1,CH2,CH3,CH4,CH5,CH6,CH7,CH8,CH9,CH10,CH11,CH12,CH13,CH14,CH15,CH16,label
-4711.0,-8618.0,-2098.0,-5695.0,431.0,5182.0,2154.0,290.0,0.0,0.0,0.0,0.0,0.0,0.0,0.0,0.0,0
-3200.0,-5706.0,-1385.0,-3775.0,280.0,3426.0,1422.0,212.0,0.0,0.0,0.0,0.0,0.0,0.0,0.0,0.0,0
-1952.0,-3307.0,-807.0,-2201.0,149.0,1971.0,820.0,145.0,0.0,0.0,0.0,0.0,0.0,0.0,0.0,0.0,0
-970.0,-1382.0,-356.0,-939.0,44.0,793.0,336.0,84.0,0.0,0.0,0.0,0.0,0.0,0.0,0.0,0.0,0
-203.0,116.0,-10.0,58.0,-44.0,-121.0,-48.0,28.0,0.0,0.0,0.0,0.0,0.0,0.0,0.0,0.0,0
405.0,1266.0,269.0,825.0,-105.0,-822.0,-345.0,-6.0,0.0,0.0,0.0,0.0,0.0,0.0,0.0,0.0,0
864.0,2116.0,480.0,1377.0,-155.0,-1334.0,-549.0,-36.0,0.0,0.0,0.0,0.0,0.0,0.0,0.0,0.0,0
1197.0,2688.0,624.0,1768.0,-178.0,-1679.0,-701.0,-72.0,0.0,0.0,0.0,0.0,0.0,0.0,0.0,0.0,0
1457.0,3032.0,721.0,2011.0,-184.0,-1887.0,-793.0,-115.0,0.0,0.0,0.0,0.0,0.0,0.0,0.0,0.0,0
1698.0,3210.0,770.0,2141.0,-169.0,-1976.0,-843.0,-156.0,0.0,0.0,0.0,0.0,0.0,0.0,0.0,0.0,0
1900.0,3270.0,794.0,2187.0,-157.0,-1988.0,-858.0,-188.0,0.0,0.0,0.0,0.0,0.0,0.0,0.0,0.0,0
2025.0,3228.0,797.0,2162.0,-137.0,-1935.0,-834.0,-209.0,0.0,0.0,0.0,0.0,0.0,0.0,0.0,0.0,0
2073.0,3103.0,781.0,2081.0,-118.0,-1835.0,-798.0,-219.0,0.0,0.0,0.0,0.0,0.0,0.0,0.0,0.0,0
2050.0,2898.0,739.0,1952.0,-114.0,-1715.0,-754.0,-223.0,0.0,0.0,0.0,0.0,0.0,0.0,0.0,0.0,0
1960.0,2647.0,654.0,1771.0,-116.0,-1569.0,-688.0,-211.0,0.0,0.0,0.0,0.0,0.0,0.0,0.0,0.0,0
1790.0,2377.0,574.0,1583.0,-106.0,-1414.0,-623.0,-186.0,0.0,0.0,0.0,0.0,0.0,0.0,0.0,0.0,0
1580.0,2073.0,487.0,1368.0,-109.0,-1247.0,-552.0,-175.0,0.0,0.0,0.0,0.0,0.0,0.0,0.0,0.0,0
1336.0,1738.0,396.0,1143.0,-105.0,-1070.0,-471.0,-148.0,0.0,0.0,0.0,0.0,0.0,0.0,0.0,0.0,0
1029.0,1385.0,303.0,916.0,-95.0,-878.0,-395.0,-107.0,0.0,0.0,0.0,0.0,0.0,0.0,0.0,0.0,0
706.0,1036.0,213.0,671.0,-91.0,-679.0,-304.0,-72.0,0.0,0.0,0.0,0.0,0.0,0.0,0.0,0.0,0
380.0,672.0,114.0,410.0,-97.0,-483.0,-215.0,-42.0,0.0,0.0,0.0,0.0,0.0,0.0,0.0,0.0,0
81.0,296.0,7.0,140.0,-94.0,-276.0,-125.0,-9.0,0.0,0.0,0.0,0.0,0.0,0.0,0.0,0.0,0
-207.0,-76.0,-95.0,-115.0,-86.0,-64.0,-37.0,13.0,0.0,0.0,0.0,0.0,0.0,0.0,0.0,0.0,0
-494.0,-436.0,-173.0,-361.0,-79.0,140.0,49.0,36.0,0.0,0.0,0.0,0.0,0.0,0.0,0.0,0.0,0
-799.0,-791.0,-255.0,-585.0,-58.0,341.0,135.0,64.0,0.0,0.0,0.0,0.0,0.0,0.0,0.0,0.0,0
-1136.0,-1124.0,-345.0,-801.0,-46.0,538.0,215.0,110.0,0.0,0.0,0.0,0.0,0.0,0.0,0.0,0.0,0
-1603.0,-1440.0,-433.0,-992.0,-29.0,706.0,288.0,169.0,0.0,0.0,0.0,0.0,0.0,0.0,0.0,0.0,0
-1881.0,-1698.0,-491.0,-1153.0,-11.0,851.0,347.0,168.0,0.0,0.0,0.0,0.0,0.0,0.0,0.0,0.0,0
-1827.0,-1884.0,-520.0,-1267.0,3.0,976.0,404.0,125.0,0.0,0.0,0.0,0.0,0.0,0.0,0.0,0.0,0
-1590.0,-2001.0,-537.0,-1344.0,33.0,1095.0,446.0,66.0,0.0,0.0,0.0,0.0,0.0,0.0,0.0,0.0,0
-1285.0,-2070.0,-537.0,-1385.0,60.0,1173.0,464.0,0.0,0.0,0.0,0.0,0.0,0.0,0.0,0.0,0.0,0
-990.0,-2074.0,-537.0,-1392.0,72.0,1205.0,473.0,-50.0,0.0,0.0,0.0,0.0,0.0,0.0,0.0,0.0,0
-721.0,-2014.0,-533.0,-1366.0,88.0,1204.0,462.0,-82.0,0.0,0.0,0.0,0.0,0.0,0.0,0.0,0.0,0
-460.0,-1910.0,-503.0,-1303.0,97.0,1168.0,448.0,-108.0,0.0,0.0,0.0,0.0,0.0,0.0,0.0,0.0,0
-245.0,-1747.0,-462.0,-1210.0,94.0,1086.0,421.0,-111.0,0.0,0.0,0.0,0.0,0.0,0.0,0.0,0.0,0
-100.0,-1567.0,-404.0,-1091.0,79.0,980.0,376.0,-114.0,0.0,0.0,0.0,0.0,0.0,0.0,0.0,0.0,0
2.0,-1365.0,-336.0,-952.0,61.0,857.0,335.0,-116.0,0.0,0.0,0.0,0.0,0.0,0.0,0.0,0.0,0
49.0,-1149.0,-264.0,-800.0,46.0,728.0,285.0,-84.0,0.0,0.0,0.0,0.0,0.0,0.0,0.0,0.0,0
27.0,-934.0,-209.0,-642.0,34.0,586.0,232.0,-56.0,0.0,0.0,0.0,0.0,0.0,0.0,0.0,0.0,0
-1.0,-751.0,-157.0,-482.0,30.0,457.0,176.0,-41.0,0.0,0.0,0.0,0.0,0.0,0.0,0.0,0.0,0
-31.0,-579.0,-99.0,-341.0,21.0,336.0,128.0,-26.0,0.0,0.0,0.0,0.0,0.0,0.0,0.0,0.0,0
-77.0,-424.0,-58.0,-229.0,7.0,230.0,91.0,-6.0,0.0,0.0,0.0,0.0,0.0,0.0,0.0,0.0,0
-130.0,-297.0,-29.0,-135.0,3.0,147.0,67.0,9.0,0.0,0.0,0.0,0.0,0.0,0.0,0.0,0.0,0
-199.0,-193.0,-5.0,-72.0,5.0,82.0,34.0,22.0,0.0,0.0,0.0,0.0,0.0,0.0,0.0,0.0,0
-265.0,-122.0,-7.0,-37.0,-9.0,27.0,6.0,34.0,0.0,0.0,0.0,0.0,0.0,0.0,0.0,0.0,0
-320.0,-87.0,-27.0,-26.0,-23.0,-20.0,-7.0,42.0,0.0,0.0,0.0,0.0,0.0,0.0,0.0,0.0,0
-348.0,-60.0,-55.0,-27.0,-37.0,-50.0,-18.0,39.0,0.0,0.0,0.0,0.0,0.0,0.0,0.0,0.0,0
-348.0,-33.0,-62.0,-27.0,-49.0,-76.0,-34.0,37.0,0.0,0.0,0.0,0.0,0.0,0.0,0.0,0.0,0
-339.0,1.0,-56.0,-22.0,-57.0,-91.0,-41.0,44.0,0.0,0.0,0.0,0.0,0.0,0.0,0.0,0.0,0
-302.0,42.0,-59.0,-9.0,-59.0,-110.0,-51.0,27.0,0.0,0.0,0.0,0.0,0.0,0.0,0.0,0.0,0
-226.0,72.0,-58.0,4.0,-63.0,-135.0,-61.0,5.0,0.0,0.0,0.0,0.0,0.0,0.0,0.0,0.0,0
-143.0,124.0,-43.0,34.0,-71.0,-167.0,-74.0,-2.0,0.0,0.0,0.0,0.0,0.0,0.0,0.0,0.0,0
-63.0,202.0,-25.0,85.0,-76.0,-202.0,-80.0,-13.0,0.0,0.0,0.0,0.0,0.0,0.0,0.0,0.0,0
27.0,298.0,10.0,155.0,-79.0,-246.0,-104.0,-30.0,0.0,0.0,0.0,0.0,0.0,0.0,0.0,0.0,0
82.0,402.0,56.0,233.0,-70.0,-300.0,-131.0,-31.0,0.0,0.0,0.0,0.0,0.0,0.0,0.0,0.0,0
127.0,501.0,101.0,320.0,-69.0,-350.0,-156.0,-27.0,0.0,0.0,0.0,0.0,0.0,0.0,0.0,0.0,0
147.0,587.0,130.0,399.0,-52.0,-396.0,-176.0,-21.0,0.0,0.0,0.0,0.0,0.0,0.0,0.0,0.0,0
146.0,669.0,163.0,460.0,-44.0,-448.0,-197.0,-10.0,0.0,0.0,0.0,0.0,0.0,0.0,0.0,0.0,0
114.0,745.0,199.0,517.0,-47.0,-491.0,-206.0,2.0,0.0,0.0,0.0,0.0,0.0,0.0,0.0,0.0,0
73.0,775.0,224.0,563.0,-36.0,-507.0,-215.0,14.0,0.0,0.0,0.0,0.0,0.0,0.0,0.0,0.0,0
6.0,778.0,220.0,563.0,-40.0,-517.0,-221.0,14.0,0.0,0.0,0.0,0.0,0.0,0.0,0.0,0.0,0
-17.0,759.0,182.0,533.0,-47.0,-513.0,-220.0,2.0,0.0,0.0,0.0,0.0,0.0,0.0,0.0,0.0,0
22.0,711.0,141.0,491.0,-66.0,-490.0,-221.0,-13.0,0.0,0.0,0.0,0.0,0.0,0.0,0.0,0.0,0
21.0,632.0,102.0,418.0,-87.0,-460.0,-209.0,-8.0,0.0,0.0,0.0,0.0,0.0,0.0,0.0,0.0,0
-23.0,529.0,65.0,318.0,-113.0,-416.0,-191.0,-17.0,0.0,0.0,0.0,0.0,0.0,0.0,0.0,0.0,0
-54.0,403.0,33.0,230.0,-117.0,-348.0,-163.0,-22.0,0.0,0.0,0.0,0.0,0.0,0.0,0.0,0.0,0
-74.0,266.0,-4.0,150.0,-98.0,-271.0,-143.0,-37.0,0.0,0.0,0.0,0.0,0.0,0.0,0.0,0.0,0
-77.0,145.0,-30.0,63.0,-91.0,-187.0,-107.0,-42.0,0.0,0.0,0.0,0.0,0.0,0.0,0.0,0.0,0
-74.0,41.0,-44.0,-17.0,-82.0,-115.0,-77.0,-57.0,0.0,0.0,0.0,0.0,0.0,0.0,0.0,0.0,0
-21.0,-47.0,-53.0,-78.0,-68.0,-45.0,-54.0,-69.0,0.0,0.0,0.0,0.0,0.0,0.0,0.0,0.0,0
65.0,-104.0,-60.0,-115.0,-54.0,18.0,-36.0,-84.0,0.0,0.0,0.0,0.0,0.0,0.0,0.0,0.0,0
141.0,-149.0,-68.0,-145.0,-39.0,64.0,-20.0,-91.0,0.0,0.0,0.0,0.0,0.0,0.0,0.0,0.0,0
203.0,-179.0,-66.0,-158.0,-30.0,87.0,-10.0,-96.0,0.0,0.0,0.0,0.0,0.0,0.0,0.0,0.0,0
272.0,-179.0,-64.0,-153.0,-27.0,87.0,-5.0,-102.0,0.0,0.0,0.0,0.0,0.0,0.0,0.0,0.0,0
303.0,-165.0,-62.0,-134.0,-22.0,76.0,-5.0,-95.0,0.0,0.0,0.0,0.0,0.0,0.0,0.0,0.0,0
303.0,-124.0,-57.0,-98.0,-23.0,59.0,-14.0,-81.0,0.0,0.0,0.0,0.0,0.0,0.0,0.0,0.0,0
312.0,-72.0,-44.0,-60.0,-12.0,41.0,-20.0,-73.0,0.0,0.0,0.0,0.0,0.0,0.0,0.0,0.0,0
287.0,-35.0,-39.0,-30.0,-13.0,9.0,-31.0,-63.0,0.0,0.0,0.0,0.0,0.0,0.0,0.0,0.0,0
220.0,-9.0,-31.0,1.0,-24.0,-35.0,-41.0,-51.0,0.0,0.0,0.0,0.0,0.0,0.0,0.0,0.0,0
173.0,23.0,-15.0,24.0,-33.0,-58.0,-48.0,-41.0,0.0,0.0,0.0,0.0,0.0,0.0,0.0,0.0,0
117.0,45.0,-11.0,36.0,-38.0,-76.0,-45.0,-35.0,0.0,0.0,0.0,0.0,0.0,0.0,0.0,0.0,0
48.0,50.0,-19.0,32.0,-42.0,-81.0,-49.0,-30.0,0.0,0.0,0.0,0.0,0.0,0.0,0.0,0.0,0
12.0,27.0,-34.0,18.0,-54.0,-65.0,-47.0,-35.0,0.0,0.0,0.0,0.0,0.0,0.0,0.0,0.0,0
-22.0,-12.0,-37.0,1.0,-48.0,-57.0,-43.0,-32.0,0.0,0.0,0.0,0.0,0.0,0.0,0.0,0.0,0
-91.0,-64.0,-47.0,-26.0,-28.0,-25.0,-32.0,-21.0,0.0,0.0,0.0,0.0,0.0,0.0,0.0,0.0,0
-139.0,-127.0,-54.0,-47.0,-12.0,17.0,-14.0,-26.0,0.0,0.0,0.0,0.0,0.0,0.0,0.0,0.0,0
-172.0,-193.0,-48.0,-69.0,0.0,60.0,-1.0,-23.0,0.0,0.0,0.0,0.0,0.0,0.0,0.0,0.0,0
-183.0,-248.0,-52.0,-107.0,4.0,93.0,17.0,-24.0,0.0,0.0,0.0,0.0,0.0,0.0,0.0,0.0,0
-184.0,-296.0,-68.0,-149.0,5.0,123.0,29.0,-31.0,0.0,0.0,0.0,0.0,0.0,0.0,0.0,0.0,0
-164.0,-341.0,-72.0,-184.0,8.0,147.0,43.0,-42.0,0.0,0.0,0.0,0.0,0.0,0.0,0.0,0.0,0
-106.0,-373.0,-79.0,-218.0,-3.0,170.0,46.0,-55.0,0.0,0.0,0.0,0.0,0.0,0.0,0.0,0.0,0
-61.0,-369.0,-85.0,-227.0,-7.0,171.0,48.0,-57.0,0.0,0.0,0.0,0.0,0.0,0.0,0.0,0.0,0
-18.0,-334.0,-81.0,-222.0,-4.0,160.0,46.0,-61.0,0.0,0.0,0.0,0.0,0.0,0.0,0.0,0.0,0
52.0,-290.0,-83.0,-207.0,-9.0,145.0,34.0,-64.0,0.0,0.0,0.0,0.0,0.0,0.0,0.0,0.0,0
85.0,-242.0,-92.0,-182.0,-19.0,109.0,30.0,-51.0,0.0,0.0,0.0,0.0,0.0,0.0,0.0,0.0,0
80.0,-179.0,-83.0,-142.0,-20.0,58.0,15.0,-53.0,0.0,0.0,0.0,0.0,0.0,0.0,0.0,0.0,0
78.0,-105.0,-69.0,-90.0,-22.0,5.0,-5.0,-55.0,0.0,0.0,0.0,0.0,0.0,0.0,0.0,0.0,0
62.0,-27.0,-59.0,-49.0,-32.0,-37.0,-17.0,-34.0,0.0,0.0,0.0,0.0,0.0,0.0,0.0,0.0,0
8.0,34.0,-47.0,-19.0,-44.0,-86.0,-34.0,-17.0,0.0,0.0,0.0,0.0,0.0,0.0,0.0,0.0,0
-21.0,84.0,-40.0,6.0,-55.0,-130.0,-53.0,-12.0,0.0,0.0,0.0,0.0,0.0,0.0,0.0,0.0,0
-53.0,129.0,-38.0,24.0,-64.0,-147.0,-58.0,-3.0,0.0,0.0,0.0,0.0,0.0,0.0,0.0,0.0,0
-75.0,156.0,-28.0,50.0,-62.0,-166.0,-63.0,-5.0,0.0,0.0,0.0,0.0,0.0,0.0,0.0,0.0,0
-98.0,156.0,-16.0,65.0,-57.0,-168.0,-67.0,-5.0,0.0,0.0,0.0,0.0,0.0,0.0,0.0,0.0,0
-148.0,139.0,-20.0,56.0,-51.0,-159.0,-63.0,3.0,0.0,0.0,0.0,0.0,0.0,0.0,0.0,0.0,0
-197.0,91.0,-31.0,37.0,-53.0,-132.0,-55.0,10.0,0.0,0.0,0.0,0.0,0.0,0.0,0.0,0.0,0
-226.0,42.0,-38.0,2.0,-60.0,-112.0,-41.0,5.0,0.0,0.0,0.0,0.0,0.0,0.0,0.0,0.0,0
-232.0,4.0,-49.0,-26.0,-53.0,-82.0,-31.0,-3.0,0.0,0.0,0.0,0.0,0.0,0.0,0.0,0.0,0
-230.0,-39.0,-52.0,-56.0,-41.0,-44.0,-21.0,-4.0,0.0,0.0,0.0,0.0,0.0,0.0,0.0,0.0,0
-233.0,-103.0,-46.0,-80.0,-36.0,-9.0,-14.0,-8.0,0.0,0.0,0.0,0.0,0.0,0.0,0.0,0.0,0
-189.0,-142.0,-25.0,-101.0,-22.0,23.0,2.0,-14.0,0.0,0.0,0.0,0.0,0.0,0.0,0.0,0.0,0
-101.0,-162.0,-15.0,-118.0,-23.0,48.0,7.0,-22.0,0.0,0.0,0.0,0.0,0.0,0.0,0.0,0.0,0
-44.0,-170.0,-11.0,-135.0,-18.0,58.0,6.0,-34.0,0.0,0.0,0.0,0.0,0.0,0.0,0.0,0.0,0
-3.0,-161.0,-19.0,-134.0,-25.0,44.0,1.0,-45.0,0.0,0.0,0.0,0.0,0.0,0.0,0.0,0.0,0
68.0,-137.0,-13.0,-116.0,-26.0,25.0,-8.0,-47.0,0.0,0.0,0.0,0.0,0.0,0.0,0.0,0.0,0
110.0,-94.0,-7.0,-80.0,-12.0,18.0,-8.0,-38.0,0.0,0.0,0.0,0.0,0.0,0.0,0.0,0.0,0
117.0,-40.0,-11.0,-45.0,-12.0,-3.0,-12.0,-39.0,0.0,0.0,0.0,0.0,0.0,0.0,0.0,0.0,0
124.0,0.0,-20.0,-22.0,-21.0,-42.0,-27.0,-40.0,0.0,0.0,0.0,0.0,0.0,0.0,0.0,0.0,0
111.0,47.0,-26.0,16.0,-21.0,-80.0,-47.0,-36.0,0.0,0.0,0.0,0.0,0.0,0.0,0.0,0.0,0
68.0,98.0,-19.0,54.0,-27.0,-115.0,-56.0,-25.0,0.0,0.0,0.0,0.0,0.0,0.0,0.0,0.0,0
31.0,140.0,0.0,89.0,-40.0,-145.0,-64.0,-22.0,0.0,0.0,0.0,0.0,0.0,0.0,0.0,0.0,0
-5.0,154.0,7.0,104.0,-48.0,-168.0,-73.0,-17.0,0.0,0.0,0.0,0.0,0.0,0.0,0.0,0.0,0
-42.0,140.0,-2.0,108.0,-57.0,-172.0,-71.0,-11.0,0.0,0.0,0.0,0.0,0.0,0.0,0.0,0.0,0
-56.0,118.0,-2.0,107.0,-56.0,-168.0,-79.0,-19.0,0.0,0.0,0.0,0.0,0.0,0.0,0.0,0.0,0
-85.0,105.0,2.0,84.0,-56.0,-159.0,-75.0,-17.0,0.0,0.0,0.0,0.0,0.0,0.0,0.0,0.0,0
-124.0,75.0,-9.0,56.0,-52.0,-130.0,-72.0,-20.0,0.0,0.0,0.0,0.0,0.0,0.0,0.0,0.0,0
-144.0,17.0,-28.0,47.0,-28.0,-94.0,-59.0,-27.0,0.0,0.0,0.0,0.0,0.0,0.0,0.0,0.0,0
-151.0,-35.0,-37.0,28.0,-2.0,-53.0,-51.0,-18.0,0.0,0.0,0.0,0.0,0.0,0.0,0.0,0.0,0
-139.0,-79.0,-33.0,0.0,16.0,-10.0,-39.0,-15.0,0.0,0.0,0.0,0.0,0.0,0.0,0.0,0.0,0
-125.0,-101.0,-32.0,-21.0,30.0,30.0,-25.0,-28.0,0.0,0.0,0.0,0.0,0.0,0.0,0.0,0.0,0
-91.0,-122.0,-32.0,-57.0,35.0,64.0,-18.0,-29.0,0.0,0.0,0.0,0.0,0.0,0.0,0.0,0.0,0
-67.0,-131.0,-30.0,-86.0,19.0,82.0,-13.0,-40.0,0.0,0.0,0.0,0.0,0.0,0.0,0.0,0.0,0
-10.0,-140.0,-19.0,-118.0,-11.0,81.0,-11.0,-52.0,0.0,0.0,0.0,0.0,0.0,0.0,0.0,0.0,0
44.0,-154.0,-27.0,-147.0,-38.0,70.0,-9.0,-63.0,0.0,0.0,0.0,0.0,0.0,0.0,0.0,0.0,0
81.0,-163.0,-44.0,-167.0,-65.0,53.0,-19.0,-72.0,0.0,0.0,0.0,0.0,0.0,0.0,0.0,0.0,0
99.0,-144.0,-54.0,-168.0,-80.0,23.0,-26.0,-73.0,0.0,0.0,0.0,0.0,0.0,0.0,0.0,0.0,0
92.0,-103.0,-49.0,-147.0,-79.0,-5.0,-36.0,-64.0,0.0,0.0,0.0,0.0,0.0,0.0,0.0,0.0,0
82.0,-62.0,-47.0,-121.0,-68.0,-35.0,-41.0,-59.0,0.0,0.0,0.0,0.0,0.0,0.0,0.0,0.0,0
42.0,-16.0,-48.0,-87.0,-67.0,-71.0,-45.0,-49.0,0.0,0.0,0.0,0.0,0.0,0.0,0.0,0.0,0
-13.0,21.0,-47.0,-52.0,-66.0,-91.0,-50.0,-38.0,0.0,0.0,0.0,0.0,0.0,0.0,0.0,0.0,0
-28.0,64.0,-51.0,-34.0,-68.0,-109.0,-54.0,-30.0,0.0,0.0,0.0,0.0,0.0,0.0,0.0,0.0,0
-30.0,85.0,-61.0,-12.0,-73.0,-133.0,-58.0,-31.0,0.0,0.0,0.0,0.0,0.0,0.0,0.0,0.0,0
-44.0,96.0,-60.0,14.0,-68.0,-139.0,-59.0,-27.0,0.0,0.0,0.0,0.0,0.0,0.0,0.0,0.0,0
-45.0,95.0,-52.0,37.0,-44.0,-123.0,-59.0,-25.0,0.0,0.0,0.0,0.0,0.0,0.0,0.0,0.0,0
-83.0,61.0,-47.0,35.0,-39.0,-112.0,-53.0,-23.0,0.0,0.0,0.0,0.0,0.0,0.0,0.0,0.0,0
-141.0,25.0,-30.0,29.0,-42.0,-93.0,-48.0,-21.0,0.0,0.0,0.0,0.0,0.0,0.0,0.0,0.0,0
-169.0,-8.0,-14.0,23.0,-21.0,-58.0,-37.0,-26.0,0.0,0.0,0.0,0.0,0.0,0.0,0.0,0.0,0
-165.0,-43.0,-6.0,13.0,6.0,-12.0,-23.0,-30.0,0.0,0.0,0.0,0.0,0.0,0.0,0.0,0.0,0
-151.0,-84.0,-9.0,-12.0,13.0,12.0,-16.0,-27.0,0.0,0.0,0.0,0.0,0.0,0.0,0.0,0.0,0
-140.0,-115.0,-7.0,-49.0,6.0,40.0,-11.0,-25.0,0.0,0.0,0.0,0.0,0.0,0.0,0.0,0.0,0
-123.0,-137.0,7.0,-70.0,4.0,61.0,-2.0,-35.0,0.0,0.0,0.0,0.0,0.0,0.0,0.0,0.0,0
-84.0,-149.0,2.0,-95.0,12.0,77.0,5.0,-40.0,0.0,0.0,0.0,0.0,0.0,0.0,0.0,0.0,0
-48.0,-182.0,-36.0,-128.0,6.0,73.0,4.0,-44.0,0.0,0.0,0.0,0.0,0.0,0.0,0.0,0.0,0
-7.0,-190.0,-60.0,-143.0,-12.0,66.0,-3.0,-53.0,0.0,0.0,0.0,0.0,0.0,0.0,0.0,0.0,0
65.0,-162.0,-64.0,-130.0,-21.0,45.0,-4.0,-61.0,0.0,0.0,0.0,0.0,0.0,0.0,0.0,0.0,0
80.0,-129.0,-57.0,-117.0,-28.0,19.0,-12.0,-46.0,0.0,0.0,0.0,0.0,0.0,0.0,0.0,0.0,0
83.0,-76.0,-37.0,-79.0,-32.0,0.0,-13.0,-35.0,0.0,0.0,0.0,0.0,0.0,0.0,0.0,0.0,0
103.0,-20.0,-28.0,-29.0,-29.0,-31.0,-14.0,-34.0,0.0,0.0,0.0,0.0,0.0,0.0,0.0,0.0,0
92.0,39.0,-13.0,22.0,-20.0,-56.0,-26.0,-21.0,0.0,0.0,0.0,0.0,0.0,0.0,0.0,0.0,0
45.0,72.0,4.0,73.0,-10.0,-85.0,-36.0,-6.0,0.0,0.0,0.0,0.0,0.0,0.0,0.0,0.0,0
-2.0,87.0,27.0,116.0,-5.0,-108.0,-33.0,-2.0,0.0,0.0,0.0,0.0,0.0,0.0,0.0,0.0,0
-53.0,100.0,15.0,122.0,-15.0,-125.0,-35.0,-2.0,0.0,0.0,0.0,0.0,0.0,0.0,0.0,0.0,0
-51.0,118.0,16.0,110.0,-25.0,-130.0,-43.0,2.0,0.0,0.0,0.0,0.0,0.0,0.0,0.0,0.0,0
-36.0,119.0,11.0,96.0,-30.0,-126.0,-51.0,0.0,0.0,0.0,0.0,0.0,0.0,0.0,0.0,0.0,0
-55.0,100.0,-16.0,64.0,-45.0,-123.0,-55.0,0.0,0.0,0.0,0.0,0.0,0.0,0.0,0.0,0.0,0
-88.0,67.0,-35.0,26.0,-51.0,-107.0,-51.0,-6.0,0.0,0.0,0.0,0.0,0.0,0.0,0.0,0.0,0
-115.0,14.0,-44.0,-13.0,-41.0,-75.0,-42.0,-5.0,0.0,0.0,0.0,0.0,0.0,0.0,0.0,0.0,0
-123.0,-24.0,-51.0,-35.0,-34.0,-40.0,-26.0,-10.0,0.0,0.0,0.0,0.0,0.0,0.0,0.0,0.0,0
-134.0,-64.0,-41.0,-58.0,-22.0,-4.0,-16.0,-9.0,0.0,0.0,0.0,0.0,0.0,0.0,0.0,0.0,0
-142.0,-103.0,-33.0,-82.0,-14.0,29.0,-11.0,-11.0,0.0,0.0,0.0,0.0,0.0,0.0,0.0,0.0,0
-131.0,-134.0,-34.0,-112.0,-15.0,50.0,-3.0,-21.0,0.0,0.0,0.0,0.0,0.0,0.0,0.0,0.0,0
-91.0,-154.0,-58.0,-154.0,-33.0,54.0,-2.0,-35.0,0.0,0.0,0.0,0.0,0.0,0.0,0.0,0.0,0
-28.0,-164.0,-74.0,-162.0,-29.0,52.0,-8.0,-49.0,0.0,0.0,0.0,0.0,0.0,0.0,0.0,0.0,0
6.0,-170.0,-88.0,-171.0,-34.0,45.0,-14.0,-56.0,0.0,0.0,0.0,0.0,0.0,0.0,0.0,0.0,0
47.0,-159.0,-108.0,-185.0,-56.0,26.0,-31.0,-62.0,0.0,0.0,0.0,0.0,0.0,0.0,0.0,0.0,0
61.0,-125.0,-112.0,-181.0,-74.0,2.0,-39.0,-67.0,0.0,0.0,0.0,0.0,0.0,0.0,0.0,0.0,0
58.0,-91.0,-108.0,-152.0,-75.0,-21.0,-40.0,-65.0,0.0,0.0,0.0,0.0,0.0,0.0,0.0,0.0,0
73.0,-44.0,-96.0,-128.0,-77.0,-51.0,-47.0,-56.0,0.0,0.0,0.0,0.0,0.0,0.0,0.0,0.0,0
67.0,11.0,-78.0,-91.0,-74.0,-78.0,-47.0,-43.0,0.0,0.0,0.0,0.0,0.0,0.0,0.0,0.0,0
26.0,55.0,-68.0,-57.0,-71.0,-95.0,-55.0,-26.0,0.0,0.0,0.0,0.0,0.0,0.0,0.0,0.0,0
-3.0,80.0,-57.0,-16.0,-64.0,-112.0,-56.0,-20.0,0.0,0.0,0.0,0.0,0.0,0.0,0.0,0.0,0
-24.0,98.0,-38.0,35.0,-36.0,-120.0,-58.0,-11.0,0.0,0.0,0.0,0.0,0.0,0.0,0.0,0.0,0
-34.0,110.0,-13.0,76.0,-18.0,-112.0,-50.0,-12.0,0.0,0.0,0.0,0.0,0.0,0.0,0.0,0.0,0
-32.0,101.0,16.0,108.0,5.0,-97.0,-42.0,-16.0,0.0,0.0,0.0,0.0,0.0,0.0,0.0,0.0,0
-76.0,77.0,42.0,126.0,20.0,-86.0,-46.0,-2.0,0.0,0.0,0.0,0.0,0.0,0.0,0.0,0.0,0
-105.0,61.0,56.0,129.0,24.0,-62.0,-37.0,-7.0,0.0,0.0,0.0,0.0,0.0,0.0,0.0,0.0,0
-105.0,34.0,58.0,102.0,25.0,-40.0,-29.0,-5.0,0.0,0.0,0.0,0.0,0.0,0.0,0.0,0.0,0
-108.0,-9.0,55.0,77.0,16.0,-23.0,-25.0,-8.0,0.0,0.0,0.0,0.0,0.0,0.0,0.0,0.0,0
-106.0,-44.0,37.0,30.0,1.0,-2.0,-24.0,-22.0,0.0,0.0,0.0,0.0,0.0,0.0,0.0,0.0,0
-113.0,-71.0,15.0,-21.0,-10.0,16.0,-27.0,-25.0,0.0,0.0,0.0,0.0,0.0,0.0,0.0,0.0,0
-92.0,-113.0,2.0,-54.0,-11.0,37.0,-24.0,-31.0,0.0,0.0,0.0,0.0,0.0,0.0,0.0,0.0,0
-54.0,-152.0,-10.0,-70.0,-3.0,63.0,-17.0,-34.0,0.0,0.0,0.0,0.0,0.0,0.0,0.0,0.0,0
-29.0,-159.0,-28.0,-83.0,-15.0,71.0,-10.0,-37.0,0.0,0.0,0.0,0.0,0.0,0.0,0.0,0.0,0
-4.0,-164.0,-45.0,-103.0,-32.0,65.0,-8.0,-48.0,0.0,0.0,0.0,0.0,0.0,0.0,0.0,0.0,0
31.0,-165.0,-65.0,-127.0,-43.0,43.0,-17.0,-64.0,0.0,0.0,0.0,0.0,0.0,0.0,0.0,0.0,0
54.0,-129.0,-76.0,-127.0,-52.0,24.0,-26.0,-59.0,0.0,0.0,0.0,0.0,0.0,0.0,0.0,0.0,0
54.0,-63.0,-79.0,-106.0,-50.0,8.0,-26.0,-60.0,0.0,0.0,0.0,0.0,0.0,0.0,0.0,0.0,0
58.0,7.0,-77.0,-84.0,-44.0,-21.0,-31.0,-65.0,0.0,0.0,0.0,0.0,0.0,0.0,0.0,0.0,0
41.0,49.0,-78.0,-64.0,-47.0,-52.0,-45.0,-59.0,0.0,0.0,0.0,0.0,0.0,0.0,0.0,0.0,0
7.0,76.0,-63.0,-38.0,-53.0,-71.0,-49.0,-46.0,0.0,0.0,0.0,0.0,0.0,0.0,0.0,0.0,0
-4.0,70.0,-54.0,-19.0,-48.0,-94.0,-51.0,-43.0,0.0,0.0,0.0,0.0,0.0,0.0,0.0,0.0,0
-14.0,42.0,-54.0,-13.0,-50.0,-110.0,-47.0,-32.0,0.0,0.0,0.0,0.0,0.0,0.0,0.0,0.0,0
-30.0,44.0,-49.0,-2.0,-61.0,-118.0,-45.0,-32.0,0.0,0.0,0.0,0.0,0.0,0.0,0.0,0.0,0
-20.0,54.0,-39.0,9.0,-62.0,-119.0,-46.0,-29.0,0.0,0.0,0.0,0.0,0.0,0.0,0.0,0.0,0
-40.0,30.0,-43.0,-6.0,-71.0,-108.0,-41.0,-28.0,0.0,0.0,0.0,0.0,0.0,0.0,0.0,0.0,0
-88.0,-1.0,-41.0,-16.0,-72.0,-93.0,-38.0,-27.0,0.0,0.0,0.0,0.0,0.0,0.0,0.0,0.0,0
-126.0,-31.0,-26.0,-24.0,-58.0,-78.0,-35.0,-25.0,0.0,0.0,0.0,0.0,0.0,0.0,0.0,0.0,0
-138.0,-62.0,-27.0,-34.0,-55.0,-54.0,-33.0,-31.0,0.0,0.0,0.0,0.0,0.0,0.0,0.0,0.0,0
-131.0,-90.0,-30.0,-50.0,-53.0,-33.0,-28.0,-36.0,0.0,0.0,0.0,0.0,0.0,0.0,0.0,0.0,0
-131.0,-121.0,-31.0,-62.0,-40.0,-6.0,-30.0,-33.0,0.0,0.0,0.0,0.0,0.0,0.0,0.0,0.0,0
-100.0,-140.0,-33.0,-66.0,-20.0,19.0,-17.0,-30.0,0.0,0.0,0.0,0.0,0.0,0.0,0.0,0.0,0
-40.0,-146.0,-27.0,-72.0,-5.0,42.0,-11.0,-26.0,0.0,0.0,0.0,0.0,0.0,0.0,0.0,0.0,0
-7.0,-148.0,-15.0,-63.0,-7.0,50.0,-10.0,-30.0,0.0,0.0,0.0,0.0,0.0,0.0,0.0,0.0,0
19.0,-142.0,-23.0,-68.0,-11.0,51.0,-10.0,-32.0,0.0,0.0,0.0,0.0,0.0,0.0,0.0,0.0,0
51.0,-127.0,-30.0,-65.0,-15.0,43.0,-15.0,-42.0,0.0,0.0,0.0,0.0,0.0,0.0,0.0,0.0,0
71.0,-97.0,-22.0,-52.0,-12.0,23.0,-12.0,-41.0,0.0,0.0,0.0,0.0,0.0,0.0,0.0,0.0,0
50.0,-77.0,-28.0,-54.0,-19.0,-1.0,-17.0,-33.0,0.0,0.0,0.0,0.0,0.0,0.0,0.0,0.0,0
50.0,-51.0,-45.0,-60.0,-24.0,-25.0,-38.0,-34.0,0.0,0.0,0.0,0.0,0.0,0.0,0.0,0.0,0
49.0,-16.0,-49.0,-44.0,-31.0,-54.0,-43.0,-21.0,0.0,0.0,0.0,0.0,0.0,0.0,0.0,0.0,0
11.0,21.0,-36.0,-23.0,-33.0,-77.0,-39.0,-13.0,0.0,0.0,0.0,0.0,0.0,0.0,0.0,0.0,0
-7.0,46.0,-29.0,9.0,-20.0,-98.0,-44.0,-11.0,0.0,0.0,0.0,0.0,0.0,0.0,0.0,0.0,0
-24.0,66.0,-15.0,37.0,-21.0,-103.0,-42.0,-8.0,0.0,0.0,0.0,0.0,0.0,0.0,0.0,0.0,0
-34.0,85.0,10.0,63.0,-31.0,-98.0,-41.0,-12.0,0.0,0.0,0.0,0.0,0.0,0.0,0.0,0.0,0
-27.0,79.0,6.0,75.0,-33.0,-96.0,-47.0,-17.0,0.0,0.0,0.0,0.0,0.0,0.0,0.0,0.0,0
-44.0,50.0,8.0,75.0,-26.0,-95.0,-55.0,-21.0,0.0,0.0,0.0,0.0,0.0,0.0,0.0,0.0,0
-71.0,34.0,12.0,65.0,-29.0,-77.0,-43.0,-19.0,0.0,0.0,0.0,0.0,0.0,0.0,0.0,0.0,0
-76.0,13.0,5.0,38.0,-36.0,-61.0,-47.0,-14.0,0.0,0.0,0.0,0.0,0.0,0.0,0.0,0.0,0
-86.0,-26.0,-15.0,9.0,-36.0,-37.0,-39.0,-16.0,0.0,0.0,0.0,0.0,0.0,0.0,0.0,0.0,0
-108.0,-74.0,-37.0,-31.0,-37.0,-11.0,-27.0,-21.0,0.0,0.0,0.0,0.0,0.0,0.0,0.0,0.0,0
-119.0,-106.0,-43.0,-65.0,-26.0,12.0,-31.0,-26.0,0.0,0.0,0.0,0.0,0.0,0.0,0.0,0.0,0
-113.0,-124.0,-46.0,-90.0,-22.0,43.0,-18.0,-31.0,0.0,0.0,0.0,0.0,0.0,0.0,0.0,0.0,0
-77.0,-128.0,-66.0,-115.0,-24.0,55.0,-12.0,-38.0,0.0,0.0,0.0,0.0,0.0,0.0,0.0,0.0,0
-24.0,-128.0,-62.0,-106.0,-27.0,64.0,-16.0,-50.0,0.0,0.0,0.0,0.0,0.0,0.0,0.0,0.0,0
21.0,-124.0,-53.0,-92.0,-25.0,58.0,-14.0,-54.0,0.0,0.0,0.0,0.0,0.0,0.0,0.0,0.0,0
61.0,-107.0,-41.0,-80.0,-30.0,54.0,-16.0,-54.0,0.0,0.0,0.0,0.0,0.0,0.0,0.0,0.0,0
70.0,-84.0,-39.0,-80.0,-43.0,37.0,-16.0,-57.0,0.0,0.0,0.0,0.0,0.0,0.0,0.0,0.0,0
55.0,-58.0,-39.0,-74.0,-52.0,6.0,-24.0,-49.0,0.0,0.0,0.0,0.0,0.0,0.0,0.0,0.0,0
54.0,-24.0,-39.0,-63.0,-54.0,-21.0,-29.0,-49.0,0.0,0.0,0.0,0.0,0.0,0.0,0.0,0.0,0
30.0,3.0,-29.0,-33.0,-49.0,-47.0,-38.0,-43.0,0.0,0.0,0.0,0.0,0.0,0.0,0.0,0.0,0
-24.0,31.0,-32.0,-23.0,-42.0,-69.0,-36.0,-38.0,0.0,0.0,0.0,0.0,0.0,0.0,0.0,0.0,0
-53.0,49.0,-43.0,-19.0,-52.0,-79.0,-34.0,-34.0,0.0,0.0,0.0,0.0,0.0,0.0,0.0,0.0,0
-46.0,62.0,-45.0,-5.0,-65.0,-95.0,-33.0,-29.0,0.0,0.0,0.0,0.0,0.0,0.0,0.0,0.0,0
-33.0,64.0,-44.0,4.0,-65.0,-104.0,-35.0,-28.0,0.0,0.0,0.0,0.0,0.0,0.0,0.0,0.0,0
-24.0,58.0,-47.0,0.0,-65.0,-102.0,-31.0,-29.0,0.0,0.0,0.0,0.0,0.0,0.0,0.0,0.0,0
-59.0,26.0,-60.0,-19.0,-77.0,-95.0,-32.0,-22.0,0.0,0.0,0.0,0.0,0.0,0.0,0.0,0.0,0
-95.0,-13.0,-80.0,-39.0,-76.0,-93.0,-34.0,-20.0,0.0,0.0,0.0,0.0,0.0,0.0,0.0,0.0,0
-98.0,-29.0,-85.0,-54.0,-67.0,-71.0,-32.0,-27.0,0.0,0.0,0.0,0.0,0.0,0.0,0.0,0.0,0
-82.0,-49.0,-84.0,-73.0,-69.0,-50.0,-25.0,-28.0,0.0,0.0,0.0,0.0,0.0,0.0,0.0,0.0,0
-82.0,-71.0,-87.0,-92.0,-74.0,-31.0,-20.0,-26.0,0.0,0.0,0.0,0.0,0.0,0.0,0.0,0.0,0
-93.0,-103.0,-81.0,-107.0,-62.0,-4.0,-29.0,-36.0,0.0,0.0,0.0,0.0,0.0,0.0,0.0,0.0,0
-77.0,-126.0,-77.0,-117.0,-48.0,7.0,-28.0,-41.0,0.0,0.0,0.0,0.0,0.0,0.0,0.0,0.0,0
-48.0,-131.0,-73.0,-111.0,-33.0,30.0,-20.0,-42.0,0.0,0.0,0.0,0.0,0.0,0.0,0.0,0.0,0
-12.0,-110.0,-50.0,-87.0,-32.0,42.0,-14.0,-39.0,0.0,0.0,0.0,0.0,0.0,0.0,0.0,0.0,0
17.0,-96.0,-22.0,-57.0,-28.0,33.0,-15.0,-43.0,0.0,0.0,0.0,0.0,0.0,0.0,0.0,0.0,0
55.0,-82.0,-15.0,-35.0,-22.0,25.0,-15.0,-34.0,0.0,0.0,0.0,0.0,0.0,0.0,0.0,0.0,0
61.0,-69.0,-5.0,-5.0,-9.0,12.0,-16.0,-19.0,0.0,0.0,0.0,0.0,0.0,0.0,0.0,0.0,0
29.0,-49.0,7.0,30.0,6.0,2.0,-17.0,-16.0,0.0,0.0,0.0,0.0,0.0,0.0,0.0,0.0,0
24.0,-19.0,14.0,57.0,14.0,-14.0,-25.0,-18.0,0.0,0.0,0.0,0.0,0.0,0.0,0.0,0.0,0
11.0,8.0,28.0,78.0,13.0,-34.0,-25.0,-16.0,0.0,0.0,0.0,0.0,0.0,0.0,0.0,0.0,0
-17.0,22.0,29.0,84.0,4.0,-55.0,-33.0,-17.0,0.0,0.0,0.0,0.0,0.0,0.0,0.0,0.0,0
-22.0,34.0,30.0,82.0,-10.0,-63.0,-38.0,-10.0,0.0,0.0,0.0,0.0,0.0,0.0,0.0,0.0,0
-25.0,41.0,9.0,65.0,-20.0,-84.0,-44.0,-10.0,0.0,0.0,0.0,0.0,0.0,0.0,0.0,0.0,0
-43.0,19.0,-24.0,34.0,-31.0,-99.0,-46.0,-20.0,0.0,0.0,0.0,0.0,0.0,0.0,0.0,0.0,0
-40.0,11.0,-38.0,14.0,-34.0,-96.0,-48.0,-25.0,0.0,0.0,0.0,0.0,0.0,0.0,0.0,0.0,0
-56.0,-9.0,-41.0,-10.0,-42.0,-92.0,-43.0,-15.0,0.0,0.0,0.0,0.0,0.0,0.0,0.0,0.0,0
-90.0,-35.0,-63.0,-30.0,-51.0,-83.0,-49.0,-15.0,0.0,0.0,0.0,0.0,0.0,0.0,0.0,0.0,0
-96.0,-50.0,-71.0,-46.0,-40.0,-64.0,-44.0,-20.0,0.0,0.0,0.0,0.0,0.0,0.0,0.0,0.0,0
-93.0,-58.0,-69.0,-55.0,-34.0,-42.0,-33.0,-28.0,0.0,0.0,0.0,0.0,0.0,0.0,0.0,0.0,0
-95.0,-70.0,-71.0,-61.0,-36.0,-31.0,-29.0,-30.0,0.0,0.0,0.0,0.0,0.0,0.0,0.0,0.0,0
-106.0,-74.0,-79.0,-82.0,-45.0,-6.0,-23.0,-28.0,0.0,0.0,0.0,0.0,0.0,0.0,0.0,0.0,0
-92.0,-84.0,-91.0,-104.0,-44.0,11.0,-18.0,-34.0,0.0,0.0,0.0,0.0,0.0,0.0,0.0,0.0,0
-49.0,-90.0,-87.0,-114.0,-52.0,20.0,-22.0,-47.0,0.0,0.0,0.0,0.0,0.0,0.0,0.0,0.0,0
-12.0,-94.0,-62.0,-99.0,-51.0,19.0,-22.0,-47.0,0.0,0.0,0.0,0.0,0.0,0.0,0.0,0.0,0
22.0,-84.0,-41.0,-81.0,-41.0,20.0,-19.0,-43.0,0.0,0.0,0.0,0.0,0.0,0.0,0.0,0.0,0
52.0,-75.0,-26.0,-69.0,-37.0,9.0,-15.0,-46.0,0.0,0.0,0.0,0.0,0.0,0.0,0.0,0.0,0
36.0,-80.0,-20.0,-57.0,-36.0,3.0,-16.0,-51.0,0.0,0.0,0.0,0.0,0.0,0.0,0.0,0.0,0
2.0,-79.0,-27.0,-44.0,-34.0,-14.0,-26.0,-40.0,0.0,0.0,0.0,0.0,0.0,0.0,0.0,0.0,0
2.0,-49.0,-13.0,-28.0,-34.0,-37.0,-30.0,-38.0,0.0,0.0,0.0,0.0,0.0,0.0,0.0,0.0,0
-5.0,-9.0,-5.0,-16.0,-38.0,-54.0,-27.0,-30.0,0.0,0.0,0.0,0.0,0.0,0.0,0.0,0.0,0
-32.0,28.0,-7.0,-4.0,-39.0,-67.0,-25.0,-22.0,0.0,0.0,0.0,0.0,0.0,0.0,0.0,0.0,0
-48.0,56.0,-19.0,-3.0,-43.0,-74.0,-31.0,-24.0,0.0,0.0,0.0,0.0,0.0,0.0,0.0,0.0,0
-60.0,61.0,-37.0,-6.0,-43.0,-89.0,-36.0,-34.0,0.0,0.0,0.0,0.0,0.0,0.0,0.0,0.0,0
-59.0,56.0,-45.0,-1.0,-50.0,-104.0,-33.0,-37.0,0.0,0.0,0.0,0.0,0.0,0.0,0.0,0.0,0
-34.0,26.0,-59.0,-3.0,-52.0,-102.0,-34.0,-47.0,0.0,0.0,0.0,0.0,0.0,0.0,0.0,0.0,0
-31.0,-2.0,-64.0,-3.0,-39.0,-92.0,-33.0,-45.0,0.0,0.0,0.0,0.0,0.0,0.0,0.0,0.0,0
-56.0,-20.0,-55.0,-14.0,-30.0,-81.0,-26.0,-39.0,0.0,0.0,0.0,0.0,0.0,0.0,0.0,0.0,0
-71.0,-35.0,-43.0,-27.0,-30.0,-63.0,-15.0,-38.0,0.0,0.0,0.0,0.0,0.0,0.0,0.0,0.0,0
-83.0,-59.0,-39.0,-29.0,-30.0,-46.0,-14.0,-42.0,0.0,0.0,0.0,0.0,0.0,0.0,0.0,0.0,0
-84.0,-73.0,-27.0,-37.0,-28.0,-27.0,-17.0,-39.0,0.0,0.0,0.0,0.0,0.0,0.0,0.0,0.0,0
-96.0,-89.0,-12.0,-42.0,-19.0,-8.0,-12.0,-23.0,0.0,0.0,0.0,0.0,0.0,0.0,0.0,0.0,0
-77.0,-94.0,-3.0,-49.0,-12.0,12.0,-4.0,-25.0,0.0,0.0,0.0,0.0,0.0,0.0,0.0,0.0,0
-44.0,-97.0,3.0,-48.0,-10.0,29.0,-8.0,-31.0,0.0,0.0,0.0,0.0,0.0,0.0,0.0,0.0,0
-25.0,-100.0,5.0,-51.0,-16.0,36.0,-11.0,-26.0,0.0,0.0,0.0,0.0,0.0,0.0,0.0,0.0,0
0.0,-80.0,1.0,-55.0,-29.0,27.0,-5.0,-29.0,0.0,0.0,0.0,0.0,0.0,0.0,0.0,0.0,0
38.0,-70.0,-1.0,-66.0,-34.0,18.0,-6.0,-35.0,0.0,0.0,0.0,0.0,0.0,0.0,0.0,0.0,0
55.0,-42.0,-18.0,-58.0,-39.0,8.0,-6.0,-30.0,0.0,0.0,0.0,0.0,0.0,0.0,0.0,0.0,0
40.0,-31.0,-24.0,-36.0,-44.0,-4.0,-17.0,-30.0,0.0,0.0,0.0,0.0,0.0,0.0,0.0,0.0,0
32.0,-22.0,-28.0,-29.0,-48.0,-19.0,-25.0,-39.0,0.0,0.0,0.0,0.0,0.0,0.0,0.0,0.0,0
19.0,-18.0,-37.0,-18.0,-40.0,-33.0,-31.0,-40.0,0.0,0.0,0.0,0.0,0.0,0.0,0.0,0.0,0
-12.0,-11.0,-47.0,-24.0,-43.0,-53.0,-36.0,-34.0,0.0,0.0,0.0,0.0,0.0,0.0,0.0,0.0,0
-28.0,5.0,-57.0,-30.0,-53.0,-74.0,-39.0,-31.0,0.0,0.0,0.0,0.0,0.0,0.0,0.0,0.0,0
-38.0,13.0,-48.0,-15.0,-47.0,-78.0,-36.0,-32.0,0.0,0.0,0.0,0.0,0.0,0.0,0.0,0.0,0
-40.0,17.0,-39.0,5.0,-36.0,-83.0,-32.0,-34.0,0.0,0.0,0.0,0.0,0.0,0.0,0.0,0.0,0
-40.0,18.0,-33.0,27.0,-29.0,-80.0,-37.0,-37.0,0.0,0.0,0.0,0.0,0.0,0.0,0.0,0.0,0
-54.0,13.0,-24.0,20.0,-18.0,-66.0,-27.0,-39.0,0.0,0.0,0.0,0.0,0.0,0.0,0.0,0.0,0
-56.0,-9.0,-26.0,20.0,-23.0,-60.0,-30.0,-40.0,0.0,0.0,0.0,0.0,0.0,0.0,0.0,0.0,0
-53.0,-21.0,-17.0,22.0,-27.0,-53.0,-36.0,-39.0,0.0,0.0,0.0,0.0,0.0,0.0,0.0,0.0,0
-70.0,-30.0,-24.0,4.0,-39.0,-43.0,-28.0,-41.0,0.0,0.0,0.0,0.0,0.0,0.0,0.0,0.0,0
-98.0,-58.0,-36.0,-15.0,-45.0,-33.0,-19.0,-39.0,0.0,0.0,0.0,0.0,0.0,0.0,0.0,0.0,0
-118.0,-84.0,-51.0,-41.0,-41.0,-16.0,-6.0,-38.0,0.0,0.0,0.0,0.0,0.0,0.0,0.0,0.0,0
-106.0,-94.0,-59.0,-59.0,-40.0,5.0,-5.0,-40.0,0.0,0.0,0.0,0.0,0.0,0.0,0.0,0.0,0
-69.0,-97.0,-58.0,-63.0,-46.0,12.0,-12.0,-50.0,0.0,0.0,0.0,0.0,0.0,0.0,0.0,0.0,0
-47.0,-95.0,-54.0,-62.0,-40.0,12.0,-13.0,-47.0,0.0,0.0,0.0,0.0,0.0,0.0,0.0,0.0,0
-30.0,-87.0,-37.0,-69.0,-38.0,17.0,-18.0,-55.0,0.0,0.0,0.0,0.0,0.0,0.0,0.0,0.0,0
17.0,-75.0,-24.0,-65.0,-33.0,11.0,-22.0,-70.0,0.0,0.0,0.0,0.0,0.0,0.0,0.0,0.0,0
30.0,-55.0,-20.0,-52.0,-27.0,-2.0,-20.0,-62.0,0.0,0.0,0.0,0.0,0.0,0.0,0.0,0.0,0
17.0,-38.0,-18.0,-43.0,-34.0,-17.0,-24.0,-51.0,0.0,0.0,0.0,0.0,0.0,0.0,0.0,0.0,0
18.0,-16.0,-16.0,-42.0,-37.0,-30.0,-30.0,-48.0,0.0,0.0,0.0,0.0,0.0,0.0,0.0,0.0,0
4.0,-2.0,-20.0,-42.0,-50.0,-42.0,-36.0,-42.0,0.0,0.0,0.0,0.0,0.0,0.0,0.0,0.0,0
-42.0,9.0,-33.0,-49.0,-57.0,-65.0,-43.0,-34.0,0.0,0.0,0.0,0.0,0.0,0.0,0.0,0.0,0
-54.0,17.0,-48.0,-62.0,-60.0,-81.0,-49.0,-37.0,0.0,0.0,0.0,0.0,0.0,0.0,0.0,0.0,0
-58.0,12.0,-57.0,-76.0,-66.0,-91.0,-49.0,-35.0,0.0,0.0,0.0,0.0,0.0,0.0,0.0,0.0,0
-65.0,14.0,-68.0,-76.0,-67.0,-96.0,-56.0,-43.0,0.0,0.0,0.0,0.0,0.0,0.0,0.0,0.0,0
-51.0,23.0,-66.0,-76.0,-59.0,-100.0,-66.0,-48.0,0.0,0.0,0.0,0.0,0.0,0.0,0.0,0.0,0
-38.0,19.0,-68.0,-66.0,-48.0,-93.0,-61.0,-41.0,0.0,0.0,0.0,0.0,0.0,0.0,0.0,0.0,0
-46.0,21.0,-56.0,-51.0,-31.0,-72.0,-53.0,-31.0,0.0,0.0,0.0,0.0,0.0,0.0,0.0,0.0,0
-51.0,11.0,-45.0,-34.0,-16.0,-53.0,-40.0,-28.0,0.0,0.0,0.0,0.0,0.0,0.0,0.0,0.0,0
-56.0,-11.0,-35.0,-25.0,-11.0,-34.0,-42.0,-30.0,0.0,0.0,0.0,0.0,0.0,0.0,0.0,0.0,0
-74.0,-34.0,-30.0,-17.0,-2.0,-26.0,-41.0,-29.0,0.0,0.0,0.0,0.0,0.0,0.0,0.0,0.0,0
-98.0,-47.0,-28.0,-11.0,4.0,-18.0,-29.0,-25.0,0.0,0.0,0.0,0.0,0.0,0.0,0.0,0.0,0
-79.0,-53.0,-21.0,-6.0,3.0,1.0,-23.0,-28.0,0.0,0.0,0.0,0.0,0.0,0.0,0.0,0.0,0
-40.0,-58.0,-10.0,-13.0,13.0,13.0,-22.0,-28.0,0.0,0.0,0.0,0.0,0.0,0.0,0.0,0.0,0
-21.0,-67.0,-14.0,-31.0,2.0,11.0,-18.0,-31.0,0.0,0.0,0.0,0.0,0.0,0.0,0.0,0.0,0
-15.0,-95.0,-26.0,-27.0,-10.0,13.0,-21.0,-33.0,0.0,0.0,0.0,0.0,0.0,0.0,0.0,0.0,0
10.0,-94.0,-25.0,-25.0,-14.0,7.0,-15.0,-38.0,0.0,0.0,0.0,0.0,0.0,0.0,0.0,0.0,0
21.0,-78.0,-18.0,-28.0,-26.0,-3.0,-23.0,-27.0,0.0,0.0,0.0,0.0,0.0,0.0,0.0,0.0,0
3.0,-66.0,-14.0,-22.0,-35.0,-11.0,-26.0,-20.0,0.0,0.0,0.0,0.0,0.0,0.0,0.0,0.0,0
11.0,-47.0,-20.0,-19.0,-29.0,-21.0,-31.0,-19.0,0.0,0.0,0.0,0.0,0.0,0.0,0.0,0.0,0
19.0,-4.0,-26.0,-26.0,-32.0,-36.0,-28.0,-9.0,0.0,0.0,0.0,0.0,0.0,0.0,0.0,0.0,0
0.0,54.0,-36.0,-25.0,-34.0,-41.0,-23.0,-6.0,0.0,0.0,0.0,0.0,0.0,0.0,0.0,0.0,0
-11.0,93.0,-43.0,-16.0,-47.0,-61.0,-27.0,-12.0,0.0,0.0,0.0,0.0,0.0,0.0,0.0,0.0,0
-12.0,99.0,-40.0,-17.0,-53.0,-77.0,-41.0,-21.0,0.0,0.0,0.0,0.0,0.0,0.0,0.0,0.0,0
-26.0,56.0,-44.0,-10.0,-54.0,-73.0,-46.0,-23.0,0.0,0.0,0.0,0.0,0.0,0.0,0.0,0.0,0
-37.0,7.0,-33.0,5.0,-44.0,-64.0,-47.0,-26.0,0.0,0.0,0.0,0.0,0.0,0.0,0.0,0.0,0
-51.0,-56.0,-34.0,11.0,-41.0,-63.0,-40.0,-25.0,0.0,0.0,0.0,0.0,0.0,0.0,0.0,0.0,0
-63.0,-74.0,-28.0,-3.0,-47.0,-59.0,-41.0,-23.0,0.0,0.0,0.0,0.0,0.0,0.0,0.0,0.0,0
-56.0,-54.0,-32.0,-9.0,-54.0,-51.0,-43.0,-29.0,0.0,0.0,0.0,0.0,0.0,0.0,0.0,0.0,0
-49.0,-74.0,-43.0,-19.0,-46.0,-42.0,-39.0,-25.0,0.0,0.0,0.0,0.0,0.0,0.0,0.0,0.0,0
-68.0,-98.0,-49.0,-46.0,-45.0,-23.0,-34.0,-16.0,0.0,0.0,0.0,0.0,0.0,0.0,0.0,0.0,0
-98.0,-110.0,-61.0,-60.0,-47.0,-17.0,-36.0,-21.0,0.0,0.0,0.0,0.0,0.0,0.0,0.0,0.0,0
-97.0,-129.0,-54.0,-52.0,-41.0,-10.0,-34.0,-31.0,0.0,0.0,0.0,0.0,0.0,0.0,0.0,0.0,0
-62.0,-120.0,-48.0,-45.0,-38.0,-2.0,-39.0,-40.0,0.0,0.0,0.0,0.0,0.0,0.0,0.0,0.0,0
-31.0,-113.0,-47.0,-62.0,-47.0,-8.0,-39.0,-36.0,0.0,0.0,0.0,0.0,0.0,0.0,0.0,0.0,0
-10.0,-112.0,-49.0,-74.0,-57.0,-12.0,-39.0,-41.0,0.0,0.0,0.0,0.0,0.0,0.0,0.0,0.0,0
27.0,-95.0,-45.0,-73.0,-52.0,-16.0,-39.0,-44.0,0.0,0.0,0.0,0.0,0.0,0.0,0.0,0.0,0
41.0,-79.0,-46.0,-70.0,-50.0,-23.0,-36.0,-40.0,0.0,0.0,0.0,0.0,0.0,0.0,0.0,0.0,0
25.0,-67.0,-37.0,-52.0,-38.0,-34.0,-29.0,-28.0,0.0,0.0,0.0,0.0,0.0,0.0,0.0,0.0,0
24.0,-59.0,-32.0,-24.0,-32.0,-45.0,-41.0,-29.0,0.0,0.0,0.0,0.0,0.0,0.0,0.0,0.0,0
13.0,-45.0,-30.0,-1.0,-28.0,-41.0,-40.0,-21.0,0.0,0.0,0.0,0.0,0.0,0.0,0.0,0.0,0
-39.0,-27.0,-23.0,14.0,-29.0,-50.0,-35.0,-21.0,0.0,0.0,0.0,0.0,0.0,0.0,0.0,0.0,0
-74.0,-5.0,-16.0,24.0,-39.0,-62.0,-51.0,-28.0,0.0,0.0,0.0,0.0,0.0,0.0,0.0,0.0,0
-52.0,3.0,-9.0,41.0,-37.0,-68.0,-49.0,-31.0,0.0,0.0,0.0,0.0,0.0,0.0,0.0,0.0,0
-7.0,3.0,-8.0,57.0,-30.0,-74.0,-49.0,-36.0,0.0,0.0,0.0,0.0,0.0,0.0,0.0,0.0,0
18.0,0.0,-2.0,55.0,-28.0,-72.0,-57.0,-36.0,0.0,0.0,0.0,0.0,0.0,0.0,0.0,0.0,0
-11.0,3.0,9.0,42.0,-36.0,-66.0,-57.0,-28.0,0.0,0.0,0.0,0.0,0.0,0.0,0.0,0.0,0
-51.0,-2.0,11.0,32.0,-27.0,-51.0,-50.0,-24.0,0.0,0.0,0.0,0.0,0.0,0.0,0.0,0.0,0
-52.0,-7.0,12.0,25.0,-22.0,-34.0,-48.0,-27.0,0.0,0.0,0.0,0.0,0.0,0.0,0.0,0.0,0
-49.0,-22.0,3.0,-11.0,-23.0,-24.0,-42.0,-23.0,0.0,0.0,0.0,0.0,0.0,0.0,0.0,0.0,0
-78.0,-45.0,-13.0,-40.0,-27.0,-11.0,-30.0,-23.0,0.0,0.0,0.0,0.0,0.0,0.0,0.0,0.0,0
-107.0,-51.0,-32.0,-58.0,-27.0,1.0,-26.0,-19.0,0.0,0.0,0.0,0.0,0.0,0.0,0.0,0.0,0
-91.0,-56.0,-43.0,-78.0,-27.0,6.0,-17.0,-22.0,0.0,0.0,0.0,0.0,0.0,0.0,0.0,0.0,0
-53.0,-66.0,-62.0,-98.0,-26.0,1.0,-7.0,-39.0,0.0,0.0,0.0,0.0,0.0,0.0,0.0,0.0,0
-30.0,-82.0,-77.0,-101.0,-24.0,1.0,-5.0,-38.0,0.0,0.0,0.0,0.0,0.0,0.0,0.0,0.0,0
-26.0,-81.0,-74.0,-93.0,-26.0,-13.0,-7.0,-43.0,0.0,0.0,0.0,0.0,0.0,0.0,0.0,0.0,0
14.0,-67.0,-58.0,-71.0,-23.0,-22.0,-8.0,-52.0,0.0,0.0,0.0,0.0,0.0,0.0,0.0,0.0,0
30.0,-47.0,-45.0,-52.0,-28.0,-30.0,-7.0,-48.0,0.0,0.0,0.0,0.0,0.0,0.0,0.0,0.0,0
20.0,-39.0,-38.0,-47.0,-26.0,-40.0,-6.0,-42.0,0.0,0.0,0.0,0.0,0.0,0.0,0.0,0.0,0
25.0,-26.0,-43.0,-51.0,-36.0,-47.0,-15.0,-49.0,0.0,0.0,0.0,0.0,0.0,0.0,0.0,0.0,0
21.0,-14.0,-28.0,-46.0,-50.0,-62.0,-21.0,-46.0,0.0,0.0,0.0,0.0,0.0,0.0,0.0,0.0,0
-25.0,-5.0,-22.0,-44.0,-59.0,-72.0,-26.0,-33.0,0.0,0.0,0.0,0.0,0.0,0.0,0.0,0.0,0
-49.0,6.0,-20.0,-41.0,-72.0,-84.0,-35.0,-28.0,0.0,0.0,0.0,0.0,0.0,0.0,0.0,0.0,0
-67.0,4.0,-42.0,-44.0,-82.0,-90.0,-40.0,-33.0,0.0,0.0,0.0,0.0,0.0,0.0,0.0,0.0,0
-54.0,3.0,-61.0,-41.0,-75.0,-85.0,-41.0,-45.0,0.0,0.0,0.0,0.0,0.0,0.0,0.0,0.0,0
-28.0,1.0,-73.0,-29.0,-52.0,-78.0,-37.0,-52.0,0.0,0.0,0.0,0.0,0.0,0.0,0.0,0.0,0
-22.0,-16.0,-88.0,-30.0,-39.0,-66.0,-39.0,-44.0,0.0,0.0,0.0,0.0,0.0,0.0,0.0,0.0,0
-50.0,-38.0,-96.0,-33.0,-34.0,-63.0,-39.0,-41.0,0.0,0.0,0.0,0.0,0.0,0.0,0.0,0.0,0
-68.0,-37.0,-82.0,-24.0,-25.0,-53.0,-33.0,-33.0,0.0,0.0,0.0,0.0,0.0,0.0,0.0,0.0,0
-67.0,-37.0,-59.0,-25.0,-18.0,-38.0,-31.0,-29.0,0.0,0.0,0.0,0.0,0.0,0.0,0.0,0.0,0
-71.0,-49.0,-38.0,-30.0,-12.0,-29.0,-27.0,-28.0,0.0,0.0,0.0,0.0,0.0,0.0,0.0,0.0,0
-85.0,-50.0,-23.0,-26.0,-7.0,-17.0,-25.0,-28.0,0.0,0.0,0.0,0.0,0.0,0.0,0.0,0.0,0
-70.0,-53.0,2.0,-9.0,6.0,-6.0,-17.0,-25.0,0.0,0.0,0.0,0.0,0.0,0.0,0.0,0.0,0
-44.0,-62.0,17.0,18.0,15.0,3.0,-13.0,-26.0,0.0,0.0,0.0,0.0,0.0,0.0,0.0,0.0,0
-28.0,-60.0,25.0,27.0,13.0,4.0,-9.0,-17.0,0.0,0.0,0.0,0.0,0.0,0.0,0.0,0.0,0
-12.0,-52.0,37.0,40.0,17.0,-3.0,-7.0,-12.0,0.0,0.0,0.0,0.0,0.0,0.0,0.0,0.0,0
14.0,-38.0,35.0,50.0,19.0,-3.0,-12.0,-23.0,0.0,0.0,0.0,0.0,0.0,0.0,0.0,0.0,0
22.0,-21.0,20.0,41.0,22.0,-1.0,-14.0,-28.0,0.0,0.0,0.0,0.0,0.0,0.0,0.0,0.0,0
7.0,-18.0,11.0,43.0,18.0,-4.0,-21.0,-23.0,0.0,0.0,0.0,0.0,0.0,0.0,0.0,0.0,0
18.0,-9.0,1.0,33.0,20.0,-6.0,-29.0,-24.0,0.0,0.0,0.0,0.0,0.0,0.0,0.0,0.0,0
3.0,0.0,-24.0,5.0,1.0,-20.0,-29.0,-25.0,0.0,0.0,0.0,0.0,0.0,0.0,0.0,0.0,0
-25.0,12.0,-42.0,-10.0,-22.0,-40.0,-41.0,-24.0,0.0,0.0,0.0,0.0,0.0,0.0,0.0,0.0,0
-43.0,10.0,-60.0,-19.0,-35.0,-41.0,-50.0,-28.0,0.0,0.0,0.0,0.0,0.0,0.0,0.0,0.0,0
-58.0,-10.0,-80.0,-31.0,-52.0,-41.0,-54.0,-31.0,0.0,0.0,0.0,0.0,0.0,0.0,0.0,0.0,0
-51.0,-16.0,-79.0,-39.0,-61.0,-44.0,-56.0,-41.0,0.0,0.0,0.0,0.0,0.0,0.0,0.0,0.0,0
-38.0,-17.0,-75.0,-46.0,-68.0,-48.0,-62.0,-51.0,0.0,0.0,0.0,0.0,0.0,0.0,0.0,0.0,0
-44.0,-22.0,-76.0,-55.0,-86.0,-51.0,-65.0,-45.0,0.0,0.0,0.0,0.0,0.0,0.0,0.0,0.0,0
-61.0,-36.0,-74.0,-75.0,-96.0,-47.0,-67.0,-45.0,0.0,0.0,0.0,0.0,0.0,0.0,0.0,0.0,0
-60.0,-58.0,-84.0,-88.0,-100.0,-41.0,-57.0,-39.0,0.0,0.0,0.0,0.0,0.0,0.0,0.0,0.0,0
-64.0,-67.0,-90.0,-101.0,-97.0,-37.0,-52.0,-43.0,0.0,0.0,0.0,0.0,0.0,0.0,0.0,0.0,0
-76.0,-60.0,-91.0,-110.0,-98.0,-32.0,-41.0,-43.0,0.0,0.0,0.0,0.0,0.0,0.0,0.0,0.0,0
-109.0,-71.0,-80.0,-116.0,-72.0,-32.0,-36.0,-39.0,0.0,0.0,0.0,0.0,0.0,0.0,0.0,0.0,0
-115.0,-78.0,-67.0,-106.0,-61.0,-27.0,-32.0,-44.0,0.0,0.0,0.0,0.0,0.0,0.0,0.0,0.0,0
-74.0,-88.0,-64.0,-106.0,-61.0,-21.0,-21.0,-47.0,0.0,0.0,0.0,0.0,0.0,0.0,0.0,0.0,0
-38.0,-83.0,-52.0,-109.0,-56.0,-23.0,-17.0,-44.0,0.0,0.0,0.0,0.0,0.0,0.0,0.0,0.0,0
-15.0,-66.0,-37.0,-97.0,-53.0,-17.0,-11.0,-43.0,0.0,0.0,0.0,0.0,0.0,0.0,0.0,0.0,0
18.0,-45.0,-33.0,-86.0,-51.0,-20.0,-10.0,-52.0,0.0,0.0,0.0,0.0,0.0,0.0,0.0,0.0,0
51.0,-37.0,-36.0,-79.0,-44.0,-27.0,-21.0,-46.0,0.0,0.0,0.0,0.0,0.0,0.0,0.0,0.0,0
55.0,-46.0,-28.0,-47.0,-38.0,-31.0,-27.0,-42.0,0.0,0.0,0.0,0.0,0.0,0.0,0.0,0.0,0
46.0,-38.0,-21.0,-27.0,-38.0,-28.0,-26.0,-41.0,0.0,0.0,0.0,0.0,0.0,0.0,0.0,0.0,0
24.0,-28.0,-21.0,-12.0,-41.0,-36.0,-35.0,-31.0,0.0,0.0,0.0,0.0,0.0,0.0,0.0,0.0,0
-30.0,-36.0,-19.0,6.0,-40.0,-48.0,-42.0,-25.0,0.0,0.0,0.0,0.0,0.0,0.0,0.0,0.0,0
-50.0,-38.0,-5.0,38.0,-33.0,-45.0,-48.0,-21.0,0.0,0.0,0.0,0.0,0.0,0.0,0.0,0.0,0
-45.0,-16.0,6.0,59.0,-23.0,-37.0,-46.0,-16.0,0.0,0.0,0.0,0.0,0.0,0.0,0.0,0.0,0
-25.0,11.0,13.0,63.0,-16.0,-28.0,-38.0,-19.0,0.0,0.0,0.0,0.0,0.0,0.0,0.0,0.0,0
0.0,16.0,14.0,64.0,-20.0,-27.0,-34.0,-22.0,0.0,0.0,0.0,0.0,0.0,0.0,0.0,0.0,0
-19.0,6.0,10.0,47.0,-24.0,-23.0,-33.0,-18.0,0.0,0.0,0.0,0.0,0.0,0.0,0.0,0.0,0
-50.0,1.0,-1.0,12.0,-30.0,-22.0,-32.0,-17.0,0.0,0.0,0.0,0.0,0.0,0.0,0.0,0.0,0
-74.0,-25.0,-11.0,-18.0,-35.0,-15.0,-39.0,-22.0,0.0,0.0,0.0,0.0,0.0,0.0,0.0,0.0,0
-75.0,-47.0,-38.0,-45.0,-34.0,-18.0,-37.0,-29.0,0.0,0.0,0.0,0.0,0.0,0.0,0.0,0.0,0
-77.0,-60.0,-58.0,-73.0,-38.0,-17.0,-28.0,-20.0,0.0,0.0,0.0,0.0,0.0,0.0,0.0,0.0,0
-95.0,-81.0,-69.0,-77.0,-26.0,-12.0,-17.0,-24.0,0.0,0.0,0.0,0.0,0.0,0.0,0.0,0.0,0
-73.0,-89.0,-62.0,-65.0,-13.0,-16.0,-14.0,-39.0,0.0,0.0,0.0,0.0,0.0,0.0,0.0,0.0,0
-37.0,-89.0,-54.0,-57.0,-7.0,-17.0,-6.0,-40.0,0.0,0.0,0.0,0.0,0.0,0.0,0.0,0.0,0
-5.0,-61.0,-33.0,-47.0,-11.0,-18.0,-2.0,-38.0,0.0,0.0,0.0,0.0,0.0,0.0,0.0,0.0,0
12.0,-20.0,-16.0,-39.0,-7.0,-25.0,-5.0,-46.0,0.0,0.0,0.0,0.0,0.0,0.0,0.0,0.0,0
41.0,-9.0,-5.0,-29.0,-5.0,-28.0,-10.0,-59.0,0.0,0.0,0.0,0.0,0.0,0.0,0.0,0.0,0
38.0,-29.0,0.0,-18.0,0.0,-33.0,-16.0,-57.0,0.0,0.0,0.0,0.0,0.0,0.0,0.0,0.0,0
26.0,-28.0,24.0,-12.0,-1.0,-34.0,-13.0,-43.0,0.0,0.0,0.0,0.0,0.0,0.0,0.0,0.0,0
30.0,-24.0,35.0,-9.0,-7.0,-41.0,-17.0,-42.0,0.0,0.0,0.0,0.0,0.0,0.0,0.0,0.0,0
13.0,-32.0,20.0,-9.0,-17.0,-41.0,-24.0,-32.0,0.0,0.0,0.0,0.0,0.0,0.0,0.0,0.0,0
-36.0,-22.0,17.0,-17.0,-24.0,-50.0,-28.0,-30.0,0.0,0.0,0.0,0.0,0.0,0.0,0.0,0.0,0
-44.0,-9.0,1.0,-20.0,-42.0,-57.0,-37.0,-34.0,0.0,0.0,0.0,0.0,0.0,0.0,0.0,0.0,0
-23.0,-13.0,-15.0,-19.0,-53.0,-56.0,-37.0,-29.0,0.0,0.0,0.0,0.0,0.0,0.0,0.0,0.0,0
-10.0,-14.0,-22.0,-14.0,-54.0,-53.0,-41.0,-34.0,0.0,0.0,0.0,0.0,0.0,0.0,0.0,0.0,0
5.0,-13.0,-44.0,-25.0,-62.0,-52.0,-48.0,-37.0,0.0,0.0,0.0,0.0,0.0,0.0,0.0,0.0,0
-22.0,-12.0,-43.0,-27.0,-59.0,-54.0,-45.0,-29.0,0.0,0.0,0.0,0.0,0.0,0.0,0.0,0.0,0
-42.0,-14.0,-42.0,-33.0,-59.0,-49.0,-38.0,-36.0,0.0,0.0,0.0,0.0,0.0,0.0,0.0,0.0,0
-46.0,-22.0,-48.0,-58.0,-64.0,-43.0,-42.0,-34.0,0.0,0.0,0.0,0.0,0.0,0.0,0.0,0.0,0
-52.0,-23.0,-63.0,-93.0,-67.0,-32.0,-40.0,-39.0,0.0,0.0,0.0,0.0,0.0,0.0,0.0,0.0,0
-74.0,-40.0,-81.0,-114.0,-67.0,-39.0,-39.0,-32.0,0.0,0.0,0.0,0.0,0.0,0.0,0.0,0.0,0
-92.0,-50.0,-73.0,-109.0,-64.0,-36.0,-38.0,-31.0,0.0,0.0,0.0,0.0,0.0,0.0,0.0,0.0,0
-79.0,-52.0,-65.0,-103.0,-54.0,-31.0,-33.0,-35.0,0.0,0.0,0.0,0.0,0.0,0.0,0.0,0.0,0
-38.0,-49.0,-63.0,-98.0,-39.0,-29.0,-28.0,-45.0,0.0,0.0,0.0,0.0,0.0,0.0,0.0,0.0,0
-49.0,-60.0,-59.0,-77.0,-32.0,-28.0,-25.0,-47.0,0.0,0.0,0.0,0.0,0.0,0.0,0.0,0.0,0
-46.0,-45.0,-33.0,-60.0,-31.0,-31.0,-22.0,-49.0,0.0,0.0,0.0,0.0,0.0,0.0,0.0,0.0,0
24.0,-29.0,-17.0,-42.0,-27.0,-37.0,-27.0,-54.0,0.0,0.0,0.0,0.0,0.0,0.0,0.0,0.0,0
59.0,-29.0,-7.0,-19.0,-16.0,-42.0,-34.0,-58.0,0.0,0.0,0.0,0.0,0.0,0.0,0.0,0.0,0
45.0,-28.0,-5.0,-5.0,-13.0,-43.0,-41.0,-51.0,0.0,0.0,0.0,0.0,0.0,0.0,0.0,0.0,0
25.0,-26.0,-6.0,-5.0,-17.0,-34.0,-44.0,-51.0,0.0,0.0,0.0,0.0,0.0,0.0,0.0,0.0,0
-4.0,-22.0,-6.0,-1.0,-24.0,-41.0,-44.0,-44.0,0.0,0.0,0.0,0.0,0.0,0.0,0.0,0.0,0
-33.0,-10.0,-8.0,2.0,-27.0,-42.0,-50.0,-39.0,0.0,0.0,0.0,0.0,0.0,0.0,0.0,0.0,0
-34.0,-1.0,-8.0,4.0,-22.0,-29.0,-48.0,-26.0,0.0,0.0,0.0,0.0,0.0,0.0,0.0,0.0,0
-45.0,3.0,-9.0,5.0,-20.0,-18.0,-50.0,-19.0,0.0,0.0,0.0,0.0,0.0,0.0,0.0,0.0,0
-70.0,-10.0,-26.0,-5.0,-35.0,-17.0,-53.0,-27.0,0.0,0.0,0.0,0.0,0.0,0.0,0.0,0.0,0
-42.0,-9.0,-29.0,-11.0,-50.0,-18.0,-62.0,-36.0,0.0,0.0,0.0,0.0,0.0,0.0,0.0,0.0,0
-18.0,-4.0,-20.0,2.0,-49.0,-22.0,-56.0,-28.0,0.0,0.0,0.0,0.0,0.0,0.0,0.0,0.0,0
-23.0,7.0,-18.0,-2.0,-43.0,-14.0,-39.0,-22.0,0.0,0.0,0.0,0.0,0.0,0.0,0.0,0.0,0
-44.0,-6.0,-12.0,-13.0,-35.0,-12.0,-38.0,-16.0,0.0,0.0,0.0,0.0,0.0,0.0,0.0,0.0,0
-70.0,-20.0,-4.0,3.0,-16.0,-2.0,-32.0,-15.0,0.0,0.0,0.0,0.0,0.0,0.0,0.0,0.0,0
-85.0,-26.0,-4.0,12.0,-5.0,7.0,-27.0,-8.0,0.0,0.0,0.0,0.0,0.0,0.0,0.0,0.0,0
-91.0,-31.0,-17.0,-2.0,-4.0,7.0,-24.0,-13.0,0.0,0.0,0.0,0.0,0.0,0.0,0.0,0.0,0
-72.0,-30.0,-15.0,-15.0,-1.0,-3.0,-15.0,-20.0,0.0,0.0,0.0,0.0,0.0,0.0,0.0,0.0,0
-38.0,-24.0,-25.0,-32.0,-4.0,-3.0,-11.0,-29.0,0.0,0.0,0.0,0.0,0.0,0.0,0.0,0.0,0
-19.0,-48.0,-44.0,-40.0,-14.0,-13.0,-16.0,-29.0,0.0,0.0,0.0,0.0,0.0,0.0,0.0,0.0,0
-20.0,-74.0,-59.0,-62.0,-28.0,-18.0,-23.0,-37.0,0.0,0.0,0.0,0.0,0.0,0.0,0.0,0.0,0
0.0,-72.0,-64.0,-69.0,-33.0,-27.0,-29.0,-48.0,0.0,0.0,0.0,0.0,0.0,0.0,0.0,0.0,0
15.0,-63.0,-54.0,-60.0,-25.0,-33.0,-29.0,-47.0,0.0,0.0,0.0,0.0,0.0,0.0,0.0,0.0,0
5.0,-63.0,-39.0,-39.0,-16.0,-40.0,-25.0,-45.0,0.0,0.0,0.0,0.0,0.0,0.0,0.0,0.0,0
6.0,-49.0,-30.0,-23.0,-14.0,-32.0,-24.0,-51.0,0.0,0.0,0.0,0.0,0.0,0.0,0.0,0.0,0
-7.0,-39.0,-22.0,-19.0,-17.0,-35.0,-32.0,-42.0,0.0,0.0,0.0,0.0,0.0,0.0,0.0,0.0,0
-46.0,-29.0,-21.0,-14.0,-29.0,-40.0,-31.0,-23.0,0.0,0.0,0.0,0.0,0.0,0.0,0.0,0.0,0
-55.0,-28.0,-19.0,-16.0,-39.0,-42.0,-31.0,-26.0,0.0,0.0,0.0,0.0,0.0,0.0,0.0,0.0,0
-55.0,-30.0,-29.0,-27.0,-49.0,-39.0,-40.0,-28.0,0.0,0.0,0.0,0.0,0.0,0.0,0.0,0.0,0
-49.0,-32.0,-31.0,-41.0,-69.0,-39.0,-46.0,-33.0,0.0,0.0,0.0,0.0,0.0,0.0,0.0,0.0,0
-24.0,-29.0,-40.0,-57.0,-71.0,-39.0,-46.0,-35.0,0.0,0.0,0.0,0.0,0.0,0.0,0.0,0.0,0
-29.0,-38.0,-49.0,-79.0,-75.0,-44.0,-46.0,-34.0,0.0,0.0,0.0,0.0,0.0,0.0,0.0,0.0,0
-38.0,-44.0,-52.0,-92.0,-80.0,-44.0,-49.0,-30.0,0.0,0.0,0.0,0.0,0.0,0.0,0.0,0.0,0
-44.0,-37.0,-49.0,-99.0,-78.0,-37.0,-51.0,-27.0,0.0,0.0,0.0,0.0,0.0,0.0,0.0,0.0,0
-50.0,-56.0,-61.0,-105.0,-79.0,-38.0,-53.0,-40.0,0.0,0.0,0.0,0.0,0.0,0.0,0.0,0.0,0
-92.0,-91.0,-79.0,-111.0,-72.0,-45.0,-51.0,-43.0,0.0,0.0,0.0,0.0,0.0,0.0,0.0,0.0,0
-102.0,-89.0,-73.0,-108.0,-73.0,-46.0,-53.0,-39.0,0.0,0.0,0.0,0.0,0.0,0.0,0.0,0.0,0
-71.0,-72.0,-60.0,-97.0,-62.0,-35.0,-49.0,-35.0,0.0,0.0,0.0,0.0,0.0,0.0,0.0,0.0,0
-39.0,-78.0,-57.0,-83.0,-51.0,-30.0,-43.0,-45.0,0.0,0.0,0.0,0.0,0.0,0.0,0.0,0.0,0
-18.0,-70.0,-46.0,-71.0,-46.0,-31.0,-34.0,-43.0,0.0,0.0,0.0,0.0,0.0,0.0,0.0,0.0,0
-2.0,-46.0,-18.0,-38.0,-33.0,-41.0,-28.0,-44.0,0.0,0.0,0.0,0.0,0.0,0.0,0.0,0.0,0
23.0,-33.0,-5.0,-23.0,-29.0,-45.0,-24.0,-55.0,0.0,0.0,0.0,0.0,0.0,0.0,0.0,0.0,0
22.0,-37.0,-9.0,-23.0,-25.0,-49.0,-24.0,-50.0,0.0,0.0,0.0,0.0,0.0,0.0,0.0,0.0,0
16.0,-32.0,3.0,7.0,-10.0,-41.0,-23.0,-53.0,0.0,0.0,0.0,0.0,0.0,0.0,0.0,0.0,0
24.0,-9.0,29.0,18.0,-17.0,-38.0,-23.0,-49.0,0.0,0.0,0.0,0.0,0.0,0.0,0.0,0.0,0
-8.0,1.0,26.0,11.0,-27.0,-40.0,-22.0,-32.0,0.0,0.0,0.0,0.0,0.0,0.0,0.0,0.0,0
-52.0,-1.0,3.0,-2.0,-21.0,-40.0,-24.0,-21.0,0.0,0.0,0.0,0.0,0.0,0.0,0.0,0.0,0
-58.0,0.0,-12.0,-1.0,-28.0,-43.0,-23.0,-24.0,0.0,0.0,0.0,0.0,0.0,0.0,0.0,0.0,0
-45.0,4.0,-12.0,6.0,-27.0,-36.0,-24.0,-14.0,0.0,0.0,0.0,0.0,0.0,0.0,0.0,0.0,0
-24.0,17.0,-16.0,12.0,-11.0,-28.0,-25.0,-20.0,0.0,0.0,0.0,0.0,0.0,0.0,0.0,0.0,0
-5.0,3.0,-32.0,21.0,1.0,-22.0,-26.0,-28.0,0.0,0.0,0.0,0.0,0.0,0.0,0.0,0.0,0
-21.0,-19.0,-42.0,21.0,1.0,-28.0,-29.0,-19.0,0.0,0.0,0.0,0.0,0.0,0.0,0.0,0.0,0
-46.0,-15.0,-41.0,17.0,0.0,-31.0,-32.0,-14.0,0.0,0.0,0.0,0.0,0.0,0.0,0.0,0.0,0
-57.0,0.0,-34.0,10.0,0.0,-31.0,-40.0,-19.0,0.0,0.0,0.0,0.0,0.0,0.0,0.0,0.0,0
-36.0,5.0,-35.0,5.0,6.0,-26.0,-49.0,-18.0,0.0,0.0,0.0,0.0,0.0,0.0,0.0,0.0,0
-35.0,-1.0,-28.0,0.0,11.0,-28.0,-52.0,-11.0,0.0,0.0,0.0,0.0,0.0,0.0,0.0,0.0,0
-55.0,-20.0,-20.0,0.0,13.0,-37.0,-49.0,-10.0,0.0,0.0,0.0,0.0,0.0,0.0,0.0,0.0,0
-50.0,-30.0,-4.0,14.0,8.0,-34.0,-43.0,-22.0,0.0,0.0,0.0,0.0,0.0,0.0,0.0,0.0,0
-37.0,-31.0,13.0,8.0,1.0,-36.0,-43.0,-37.0,0.0,0.0,0.0,0.0,0.0,0.0,0.0,0.0,0
-38.0,-38.0,11.0,-3.0,-4.0,-33.0,-33.0,-36.0,0.0,0.0,0.0,0.0,0.0,0.0,0.0,0.0,0
-38.0,-50.0,-8.0,-26.0,-17.0,-33.0,-27.0,-47.0,0.0,0.0,0.0,0.0,0.0,0.0,0.0,0.0,0
-3.0,-47.0,-24.0,-45.0,-30.0,-43.0,-24.0,-53.0,0.0,0.0,0.0,0.0,0.0,0.0,0.0,0.0,0
11.0,-35.0,-31.0,-42.0,-37.0,-53.0,-25.0,-52.0,0.0,0.0,0.0,0.0,0.0,0.0,0.0,0.0,0
1.0,-24.0,-31.0,-36.0,-26.0,-55.0,-26.0,-48.0,0.0,0.0,0.0,0.0,0.0,0.0,0.0,0.0,0
4.0,-25.0,-43.0,-37.0,-38.0,-56.0,-22.0,-52.0,0.0,0.0,0.0,0.0,0.0,0.0,0.0,0.0,0
-18.0,-37.0,-70.0,-52.0,-58.0,-68.0,-20.0,-47.0,0.0,0.0,0.0,0.0,0.0,0.0,0.0,0.0,0
-63.0,-46.0,-89.0,-77.0,-75.0,-67.0,-24.0,-39.0,0.0,0.0,0.0,0.0,0.0,0.0,0.0,0.0,0
-79.0,-62.0,-104.0,-87.0,-76.0,-65.0,-26.0,-43.0,0.0,0.0,0.0,0.0,0.0,0.0,0.0,0.0,0
-72.0,-67.0,-121.0,-93.0,-73.0,-63.0,-37.0,-40.0,0.0,0.0,0.0,0.0,0.0,0.0,0.0,0.0,0
-48.0,-52.0,-119.0,-104.0,-78.0,-61.0,-37.0,-37.0,0.0,0.0,0.0,0.0,0.0,0.0,0.0,0.0,0
-29.0,-42.0,-119.0,-129.0,-83.0,-57.0,-34.0,-29.0,0.0,0.0,0.0,0.0,0.0,0.0,0.0,0.0,0
-64.0,-50.0,-115.0,-141.0,-93.0,-57.0,-30.0,-22.0,0.0,0.0,0.0,0.0,0.0,0.0,0.0,0.0,0
-89.0,-61.0,-117.0,-137.0,-89.0,-49.0,-36.0,-22.0,0.0,0.0,0.0,0.0,0.0,0.0,0.0,0.0,0
-66.0,-53.0,-112.0,-114.0,-83.0,-41.0,-45.0,-26.0,0.0,0.0,0.0,0.0,0.0,0.0,0.0,0.0,0
-56.0,-55.0,-88.0,-82.0,-76.0,-31.0,-37.0,-23.0,0.0,0.0,0.0,0.0,0.0,0.0,0.0,0.0,0
-75.0,-61.0,-60.0,-48.0,-56.0,-30.0,-37.0,-11.0,0.0,0.0,0.0,0.0,0.0,0.0,0.0,0.0,0
-87.0,-51.0,-24.0,-18.0,-45.0,-24.0,-42.0,-12.0,0.0,0.0,0.0,0.0,0.0,0.0,0.0,0.0,0
-87.0,-44.0,-2.0,1.0,-30.0,-13.0,-34.0,-19.0,0.0,0.0,0.0,0.0,0.0,0.0,0.0,0.0,0
-59.0,-33.0,15.0,19.0,-22.0,-14.0,-37.0,-24.0,0.0,0.0,0.0,0.0,0.0,0.0,0.0,0.0,0
-19.0,-6.0,31.0,33.0,-16.0,-13.0,-36.0,-27.0,0.0,0.0,0.0,0.0,0.0,0.0,0.0,0.0,0
7.0,15.0,52.0,45.0,-4.0,-13.0,-31.0,-26.0,0.0,0.0,0.0,0.0,0.0,0.0,0.0,0.0,0
24.0,10.0,64.0,55.0,15.0,-7.0,-23.0,-48.0,0.0,0.0,0.0,0.0,0.0,0.0,0.0,0.0,0
21.0,-9.0,53.0,55.0,27.0,-5.0,-20.0,-41.0,0.0,0.0,0.0,0.0,0.0,0.0,0.0,0.0,0
-6.0,-32.0,44.0,52.0,24.0,-13.0,-18.0,-42.0,0.0,0.0,0.0,0.0,0.0,0.0,0.0,0.0,0
-12.0,-33.0,47.0,56.0,33.0,-11.0,-16.0,-38.0,0.0,0.0,0.0,0.0,0.0,0.0,0.0,0.0,0
-17.0,-18.0,40.0,61.0,41.0,-12.0,-8.0,-24.0,0.0,0.0,0.0,0.0,0.0,0.0,0.0,0.0,0
-51.0,-14.0,19.0,48.0,29.0,-20.0,-5.0,-26.0,0.0,0.0,0.0,0.0,0.0,0.0,0.0,0.0,0
-57.0,-9.0,1.0,28.0,-11.0,-35.0,-8.0,-35.0,0.0,0.0,0.0,0.0,0.0,0.0,0.0,0.0,0
-57.0,-18.0,-29.0,-12.0,-47.0,-50.0,-23.0,-29.0,0.0,0.0,0.0,0.0,0.0,0.0,0.0,0.0,0
-36.0,-18.0,-42.0,-43.0,-67.0,-61.0,-31.0,-30.0,0.0,0.0,0.0,0.0,0.0,0.0,0.0,0.0,0
14.0,-3.0,-49.0,-53.0,-84.0,-62.0,-33.0,-40.0,0.0,0.0,0.0,0.0,0.0,0.0,0.0,0.0,0
19.0,-3.0,-61.0,-66.0,-91.0,-55.0,-35.0,-37.0,0.0,0.0,0.0,0.0,0.0,0.0,0.0,0.0,0
-18.0,-24.0,-57.0,-76.0,-97.0,-51.0,-36.0,-30.0,0.0,0.0,0.0,0.0,0.0,0.0,0.0,0.0,0
-44.0,-43.0,-62.0,-84.0,-88.0,-46.0,-36.0,-32.0,0.0,0.0,0.0,0.0,0.0,0.0,0.0,0.0,0
-52.0,-53.0,-68.0,-91.0,-78.0,-30.0,-33.0,-29.0,0.0,0.0,0.0,0.0,0.0,0.0,0.0,0.0,0
-81.0,-72.0,-66.0,-92.0,-74.0,-32.0,-38.0,-30.0,0.0,0.0,0.0,0.0,0.0,0.0,0.0,0.0,0
-110.0,-84.0,-57.0,-95.0,-79.0,-42.0,-47.0,-31.0,0.0,0.0,0.0,0.0,0.0,0.0,0.0,0.0,0
-93.0,-91.0,-49.0,-96.0,-73.0,-44.0,-42.0,-38.0,0.0,0.0,0.0,0.0,0.0,0.0,0.0,0.0,0
-55.0,-91.0,-49.0,-105.0,-67.0,-44.0,-44.0,-46.0,0.0,0.0,0.0,0.0,0.0,0.0,0.0,0.0,0
-52.0,-102.0,-49.0,-98.0,-62.0,-50.0,-52.0,-40.0,0.0,0.0,0.0,0.0,0.0,0.0,0.0,0.0,0
-51.0,-115.0,-54.0,-92.0,-56.0,-45.0,-51.0,-49.0,0.0,0.0,0.0,0.0,0.0,0.0,0.0,0.0,0
-32.0,-108.0,-58.0,-87.0,-54.0,-42.0,-53.0,-53.0,0.0,0.0,0.0,0.0,0.0,0.0,0.0,0.0,0
-26.0,-63.0,-46.0,-66.0,-42.0,-47.0,-36.0,-49.0,0.0,0.0,0.0,0.0,0.0,0.0,0.0,0.0,0
-39.0,-15.0,-20.0,-41.0,-31.0,-37.0,-26.0,-31.0,0.0,0.0,0.0,0.0,0.0,0.0,0.0,0.0,0
-22.0,22.0,0.0,-13.0,-8.0,-27.0,-22.0,-23.0,0.0,0.0,0.0,0.0,0.0,0.0,0.0,0.0,0
-21.0,39.0,20.0,10.0,9.0,-29.0,-12.0,-28.0,0.0,0.0,0.0,0.0,0.0,0.0,0.0,0.0,0
-29.0,20.0,11.0,21.0,18.0,-29.0,-15.0,-24.0,0.0,0.0,0.0,0.0,0.0,0.0,0.0,0.0,0
-27.0,20.0,3.0,26.0,17.0,-24.0,-14.0,-21.0,0.0,0.0,0.0,0.0,0.0,0.0,0.0,0.0,0
-20.0,56.0,12.0,42.0,17.0,-25.0,-13.0,-18.0,0.0,0.0,0.0,0.0,0.0,0.0,0.0,0.0,0
-13.0,59.0,21.0,53.0,11.0,-22.0,-14.0,-20.0,0.0,0.0,0.0,0.0,0.0,0.0,0.0,0.0,0
2.0,30.0,19.0,63.0,12.0,-18.0,-11.0,-31.0,0.0,0.0,0.0,0.0,0.0,0.0,0.0,0.0,0
-15.0,-15.0,17.0,57.0,9.0,-9.0,-11.0,-32.0,0.0,0.0,0.0,0.0,0.0,0.0,0.0,0.0,0
-34.0,-40.0,15.0,46.0,10.0,-5.0,-13.0,-25.0,0.0,0.0,0.0,0.0,0.0,0.0,0.0,0.0,0
-45.0,-54.0,-7.0,19.0,12.0,3.0,-12.0,-26.0,0.0,0.0,0.0,0.0,0.0,0.0,0.0,0.0,0
-59.0,-86.0,-25.0,-5.0,0.0,2.0,-23.0,-32.0,0.0,0.0,0.0,0.0,0.0,0.0,0.0,0.0,0
-67.0,-104.0,-37.0,-17.0,-18.0,-12.0,-31.0,-33.0,0.0,0.0,0.0,0.0,0.0,0.0,0.0,0.0,0
-84.0,-113.0,-51.0,-36.0,-31.0,-30.0,-39.0,-34.0,0.0,0.0,0.0,0.0,0.0,0.0,0.0,0.0,0
-92.0,-109.0,-74.0,-61.0,-48.0,-39.0,-45.0,-45.0,0.0,0.0,0.0,0.0,0.0,0.0,0.0,0.0,0
-50.0,-74.0,-54.0,-62.0,-41.0,-35.0,-50.0,-50.0,0.0,0.0,0.0,0.0,0.0,0.0,0.0,0.0,0
-37.0,-22.0,-43.0,-86.0,-51.0,-34.0,-53.0,-50.0,0.0,0.0,0.0,0.0,0.0,0.0,0.0,0.0,0
-49.0,-12.0,-63.0,-108.0,-61.0,-44.0,-55.0,-51.0,0.0,0.0,0.0,0.0,0.0,0.0,0.0,0.0,0
-7.0,-14.0,-79.0,-112.0,-73.0,-47.0,-52.0,-55.0,0.0,0.0,0.0,0.0,0.0,0.0,0.0,0.0,0
16.0,4.0,-87.0,-113.0,-80.0,-54.0,-54.0,-58.0,0.0,0.0,0.0,0.0,0.0,0.0,0.0,0.0,0
3.0,-2.0,-98.0,-109.0,-83.0,-59.0,-57.0,-54.0,0.0,0.0,0.0,0.0,0.0,0.0,0.0,0.0,0
5.0,-16.0,-90.0,-88.0,-85.0,-54.0,-49.0,-47.0,0.0,0.0,0.0,0.0,0.0,0.0,0.0,0.0,0
-8.0,-21.0,-80.0,-73.0,-72.0,-53.0,-31.0,-33.0,0.0,0.0,0.0,0.0,0.0,0.0,0.0,0.0,0
-41.0,-28.0,-80.0,-52.0,-68.0,-42.0,-21.0,-22.0,0.0,0.0,0.0,0.0,0.0,0.0,0.0,0.0,0
-54.0,-40.0,-74.0,-32.0,-50.0,-28.0,-18.0,-10.0,0.0,0.0,0.0,0.0,0.0,0.0,0.0,0.0,0
-47.0,-35.0,-47.0,-11.0,-42.0,-28.0,-13.0,-14.0,0.0,0.0,0.0,0.0,0.0,0.0,0.0,0.0,0
-56.0,-50.0,-25.0,4.0,-42.0,-24.0,-9.0,-22.0,0.0,0.0,0.0,0.0,0.0,0.0,0.0,0.0,0
-40.0,-57.0,-16.0,20.0,-25.0,-13.0,-3.0,-24.0,0.0,0.0,0.0,0.0,0.0,0.0,0.0,0.0,0
-23.0,-60.0,-8.0,38.0,-14.0,-6.0,0.0,-23.0,0.0,0.0,0.0,0.0,0.0,0.0,0.0,0.0,0
-57.0,-44.0,5.0,37.0,-8.0,-1.0,7.0,-15.0,0.0,0.0,0.0,0.0,0.0,0.0,0.0,0.0,0
-74.0,-21.0,1.0,35.0,-9.0,-6.0,2.0,-14.0,0.0,0.0,0.0,0.0,0.0,0.0,0.0,0.0,0
-22.0,-5.0,-3.0,21.0,-14.0,-5.0,-9.0,-24.0,0.0,0.0,0.0,0.0,0.0,0.0,0.0,0.0,0
-2.0,12.0,-3.0,21.0,-14.0,-6.0,-13.0,-26.0,0.0,0.0,0.0,0.0,0.0,0.0,0.0,0.0,2
-14.0,7.0,-21.0,-8.0,-17.0,-15.0,-19.0,-15.0,0.0,0.0,0.0,0.0,0.0,0.0,0.0,0.0,2
-18.0,-22.0,-30.0,-21.0,-22.0,-18.0,-26.0,-15.0,0.0,0.0,0.0,0.0,0.0,0.0,0.0,0.0,2
-23.0,-59.0,-31.0,-22.0,-23.0,-20.0,-25.0,-15.0,0.0,0.0,0.0,0.0,0.0,0.0,0.0,0.0,2
-45.0,-68.0,-36.0,-48.0,-33.0,-33.0,-27.0,-17.0,0.0,0.0,0.0,0.0,0.0,0.0,0.0,0.0,2
-35.0,-59.0,-52.0,-90.0,-49.0,-41.0,-39.0,-24.0,0.0,0.0,0.0,0.0,0.0,0.0,0.0,0.0,2
-6.0,-49.0,-50.0,-108.0,-62.0,-55.0,-43.0,-25.0,0.0,0.0,0.0,0.0,0.0,0.0,0.0,0.0,2
5.0,-12.0,-34.0,-101.0,-78.0,-68.0,-47.0,-23.0,0.0,0.0,0.0,0.0,0.0,0.0,0.0,0.0,2
-15.0,6.0,-27.0,-88.0,-85.0,-71.0,-54.0,-20.0,0.0,0.0,0.0,0.0,0.0,0.0,0.0,0.0,2
-20.0,1.0,-32.0,-69.0,-90.0,-74.0,-55.0,-24.0,0.0,0.0,0.0,0.0,0.0,0.0,0.0,0.0,2
-27.0,-23.0,-19.0,-40.0,-83.0,-66.0,-46.0,-9.0,0.0,0.0,0.0,0.0,0.0,0.0,0.0,0.0,2
-60.0,-22.0,-19.0,-20.0,-59.0,-52.0,-43.0,-6.0,0.0,0.0,0.0,0.0,0.0,0.0,0.0,0.0,2
-58.0,-5.0,-40.0,-35.0,-61.0,-49.0,-39.0,-19.0,0.0,0.0,0.0,0.0,0.0,0.0,0.0,0.0,2
-62.0,-2.0,-49.0,-39.0,-54.0,-48.0,-45.0,-30.0,0.0,0.0,0.0,0.0,0.0,0.0,0.0,0.0,2
-49.0,-3.0,-43.0,-46.0,-38.0,-36.0,-42.0,-39.0,0.0,0.0,0.0,0.0,0.0,0.0,0.0,0.0,2
-19.0,-9.0,-25.0,-42.0,-37.0,-23.0,-32.0,-35.0,0.0,0.0,0.0,0.0,0.0,0.0,0.0,0.0,2
-22.0,-31.0,-33.0,-43.0,-43.0,-9.0,-19.0,-20.0,0.0,0.0,0.0,0.0,0.0,0.0,0.0,0.0,2
-26.0,-49.0,-23.0,-32.0,-26.0,7.0,-5.0,-15.0,0.0,0.0,0.0,0.0,0.0,0.0,0.0,0.0,2
-27.0,-31.0,21.0,6.0,7.0,18.0,7.0,-15.0,0.0,0.0,0.0,0.0,0.0,0.0,0.0,0.0,2
-36.0,-25.0,29.0,18.0,10.0,16.0,15.0,-18.0,0.0,0.0,0.0,0.0,0.0,0.0,0.0,0.0,2
-63.0,-59.0,-4.0,5.0,-4.0,10.0,7.0,-15.0,0.0,0.0,0.0,0.0,0.0,0.0,0.0,0.0,2
-80.0,-71.0,-22.0,4.0,-3.0,-9.0,-4.0,-12.0,0.0,0.0,0.0,0.0,0.0,0.0,0.0,0.0,2
-75.0,-66.0,-17.0,14.0,14.0,-16.0,-10.0,-13.0,0.0,0.0,0.0,0.0,0.0,0.0,0.0,0.0,2
-52.0,-59.0,-11.0,11.0,14.0,-16.0,-22.0,-20.0,0.0,0.0,0.0,0.0,0.0,0.0,0.0,0.0,2
-36.0,-59.0,-19.0,0.0,1.0,-27.0,-34.0,-22.0,0.0,0.0,0.0,0.0,0.0,0.0,0.0,0.0,2
-23.0,-71.0,-30.0,-4.0,4.0,-40.0,-41.0,-29.0,0.0,0.0,0.0,0.0,0.0,0.0,0.0,0.0,2
6.0,-73.0,-41.0,-20.0,-5.0,-50.0,-48.0,-44.0,0.0,0.0,0.0,0.0,0.0,0.0,0.0,0.0,2
0.0,-75.0,-52.0,-33.0,-19.0,-57.0,-60.0,-58.0,0.0,0.0,0.0,0.0,0.0,0.0,0.0,0.0,2
-28.0,-70.0,-53.0,-39.0,-24.0,-63.0,-69.0,-77.0,0.0,0.0,0.0,0.0,0.0,0.0,0.0,0.0,2
-25.0,-46.0,-60.0,-44.0,-34.0,-61.0,-75.0,-80.0,0.0,0.0,0.0,0.0,0.0,0.0,0.0,0.0,2
-48.0,-36.0,-65.0,-54.0,-55.0,-77.0,-81.0,-69.0,0.0,0.0,0.0,0.0,0.0,0.0,0.0,0.0,2
-79.0,-11.0,-56.0,-64.0,-65.0,-75.0,-70.0,-52.0,0.0,0.0,0.0,0.0,0.0,0.0,0.0,0.0,2
-54.0,33.0,-43.0,-67.0,-63.0,-69.0,-54.0,-45.0,0.0,0.0,0.0,0.0,0.0,0.0,0.0,0.0,2
-37.0,57.0,-35.0,-74.0,-67.0,-61.0,-46.0,-49.0,0.0,0.0,0.0,0.0,0.0,0.0,0.0,0.0,2
-22.0,50.0,-35.0,-80.0,-76.0,-56.0,-40.0,-60.0,0.0,0.0,0.0,0.0,0.0,0.0,0.0,0.0,2
7.0,26.0,-45.0,-89.0,-85.0,-49.0,-35.0,-65.0,0.0,0.0,0.0,0.0,0.0,0.0,0.0,0.0,2
-1.0,3.0,-44.0,-93.0,-86.0,-39.0,-29.0,-47.0,0.0,0.0,0.0,0.0,0.0,0.0,0.0,0.0,2
-33.0,-31.0,-56.0,-95.0,-75.0,-36.0,-25.0,-32.0,0.0,0.0,0.0,0.0,0.0,0.0,0.0,0.0,2
-45.0,-50.0,-59.0,-87.0,-60.0,-25.0,-24.0,-23.0,0.0,0.0,0.0,0.0,0.0,0.0,0.0,0.0,2
-44.0,-55.0,-58.0,-75.0,-53.0,-27.0,-12.0,-15.0,0.0,0.0,0.0,0.0,0.0,0.0,0.0,0.0,2
-60.0,-66.0,-62.0,-67.0,-44.0,-24.0,-10.0,-6.0,0.0,0.0,0.0,0.0,0.0,0.0,0.0,0.0,2
-86.0,-72.0,-58.0,-51.0,-38.0,-21.0,-8.0,7.0,0.0,0.0,0.0,0.0,0.0,0.0,0.0,0.0,2
-64.0,-70.0,-47.0,-40.0,-34.0,-22.0,-8.0,2.0,0.0,0.0,0.0,0.0,0.0,0.0,0.0,0.0,2
-17.0,-56.0,-48.0,-29.0,-27.0,-23.0,-16.0,-8.0,0.0,0.0,0.0,0.0,0.0,0.0,0.0,0.0,2
-5.0,-52.0,-43.0,-12.0,-17.0,-24.0,-23.0,-2.0,0.0,0.0,0.0,0.0,0.0,0.0,0.0,0.0,2
-2.0,-29.0,-34.0,-7.0,-21.0,-25.0,-27.0,-3.0,0.0,0.0,0.0,0.0,0.0,0.0,0.0,0.0,2
19.0,-6.0,-27.0,-4.0,-22.0,-20.0,-26.0,-7.0,0.0,0.0,0.0,0.0,0.0,0.0,0.0,0.0,2
0.0,-23.0,-25.0,-15.0,-20.0,-26.0,-20.0,-4.0,0.0,0.0,0.0,0.0,0.0,0.0,0.0,0.0,2
-22.0,-46.0,-15.0,-3.0,-10.0,-25.0,-23.0,-3.0,0.0,0.0,0.0,0.0,0.0,0.0,0.0,0.0,2
-14.0,-53.0,25.0,31.0,5.0,-14.0,-27.0,0.0,0.0,0.0,0.0,0.0,0.0,0.0,0.0,0.0,2
-36.0,-53.0,44.0,52.0,23.0,-8.0,-20.0,0.0,0.0,0.0,0.0,0.0,0.0,0.0,0.0,0.0,2
-67.0,-57.0,20.0,52.0,22.0,-16.0,-20.0,1.0,0.0,0.0,0.0,0.0,0.0,0.0,0.0,0.0,2
-77.0,-64.0,-10.0,44.0,22.0,-17.0,-16.0,-8.0,0.0,0.0,0.0,0.0,0.0,0.0,0.0,0.0,2
-55.0,-48.0,-6.0,46.0,14.0,-20.0,-21.0,-14.0,0.0,0.0,0.0,0.0,0.0,0.0,0.0,0.0,2
-30.0,-19.0,0.0,35.0,3.0,-18.0,-23.0,-16.0,0.0,0.0,0.0,0.0,0.0,0.0,0.0,0.0,2
-12.0,-6.0,-11.0,15.0,-18.0,-9.0,-29.0,-25.0,0.0,0.0,0.0,0.0,0.0,0.0,0.0,0.0,2
-42.0,-19.0,-32.0,-12.0,-28.0,-16.0,-31.0,-32.0,0.0,0.0,0.0,0.0,0.0,0.0,0.0,0.0,2
-69.0,-21.0,-47.0,-25.0,-28.0,-20.0,-36.0,-40.0,0.0,0.0,0.0,0.0,0.0,0.0,0.0,0.0,2
-44.0,-19.0,-51.0,-34.0,-36.0,-20.0,-40.0,-54.0,0.0,0.0,0.0,0.0,0.0,0.0,0.0,0.0,2
-51.0,-35.0,-64.0,-59.0,-49.0,-31.0,-50.0,-52.0,0.0,0.0,0.0,0.0,0.0,0.0,0.0,0.0,2
-77.0,-47.0,-74.0,-78.0,-60.0,-34.0,-54.0,-49.0,0.0,0.0,0.0,0.0,0.0,0.0,0.0,0.0,2
-85.0,-25.0,-70.0,-93.0,-70.0,-49.0,-53.0,-46.0,0.0,0.0,0.0,0.0,0.0,0.0,0.0,0.0,2
-65.0,-8.0,-60.0,-94.0,-77.0,-52.0,-59.0,-43.0,0.0,0.0,0.0,0.0,0.0,0.0,0.0,0.0,2
-25.0,-12.0,-54.0,-81.0,-74.0,-51.0,-61.0,-48.0,0.0,0.0,0.0,0.0,0.0,0.0,0.0,0.0,2
-24.0,-25.0,-64.0,-68.0,-74.0,-58.0,-60.0,-49.0,0.0,0.0,0.0,0.0,0.0,0.0,0.0,0.0,2
-45.0,-48.0,-77.0,-68.0,-71.0,-61.0,-68.0,-61.0,0.0,0.0,0.0,0.0,0.0,0.0,0.0,0.0,2
9.0,-79.0,-82.0,-61.0,-55.0,-52.0,-74.0,-64.0,0.0,0.0,0.0,0.0,0.0,0.0,0.0,0.0,2
28.0,-110.0,-64.0,-40.0,-42.0,-59.0,-64.0,-59.0,0.0,0.0,0.0,0.0,0.0,0.0,0.0,0.0,2
-6.0,-109.0,-56.0,-36.0,-33.0,-53.0,-59.0,-53.0,0.0,0.0,0.0,0.0,0.0,0.0,0.0,0.0,2
-27.0,-91.0,-56.0,-61.0,-45.0,-52.0,-63.0,-51.0,0.0,0.0,0.0,0.0,0.0,0.0,0.0,0.0,2
-42.0,-71.0,-51.0,-70.0,-52.0,-50.0,-62.0,-39.0,0.0,0.0,0.0,0.0,0.0,0.0,0.0,0.0,2
-58.0,-36.0,-38.0,-63.0,-52.0,-50.0,-49.0,-28.0,0.0,0.0,0.0,0.0,0.0,0.0,0.0,0.0,2
-39.0,11.0,-15.0,-52.0,-56.0,-40.0,-40.0,-17.0,0.0,0.0,0.0,0.0,0.0,0.0,0.0,0.0,2
-24.0,55.0,10.0,-31.0,-60.0,-29.0,-31.0,-14.0,0.0,0.0,0.0,0.0,0.0,0.0,0.0,0.0,2
-17.0,72.0,14.0,-14.0,-46.0,-20.0,-30.0,-28.0,0.0,0.0,0.0,0.0,0.0,0.0,0.0,0.0,2
-10.0,45.0,2.0,7.0,-31.0,-19.0,-27.0,-25.0,0.0,0.0,0.0,0.0,0.0,0.0,0.0,0.0,2
-23.0,5.0,15.0,41.0,-14.0,-11.0,-19.0,-16.0,0.0,0.0,0.0,0.0,0.0,0.0,0.0,0.0,2
-30.0,-20.0,24.0,52.0,-3.0,-8.0,-22.0,-13.0,0.0,0.0,0.0,0.0,0.0,0.0,0.0,0.0,2
-35.0,-24.0,24.0,43.0,-8.0,-6.0,-13.0,-15.0,0.0,0.0,0.0,0.0,0.0,0.0,0.0,0.0,2
-36.0,-19.0,21.0,38.0,-9.0,-9.0,-14.0,-16.0,0.0,0.0,0.0,0.0,0.0,0.0,0.0,0.0,2
-42.0,-17.0,13.0,29.0,-12.0,-12.0,-20.0,-22.0,0.0,0.0,0.0,0.0,0.0,0.0,0.0,0.0,2
-58.0,-30.0,3.0,21.0,-2.0,-17.0,-20.0,-16.0,0.0,0.0,0.0,0.0,0.0,0.0,0.0,0.0,2
-56.0,-82.0,-4.0,5.0,6.0,-18.0,-23.0,-17.0,0.0,0.0,0.0,0.0,0.0,0.0,0.0,0.0,2
-55.0,-136.0,-30.0,-25.0,2.0,-23.0,-27.0,-29.0,0.0,0.0,0.0,0.0,0.0,0.0,0.0,0.0,2
-57.0,-161.0,-54.0,-39.0,-5.0,-25.0,-26.0,-32.0,0.0,0.0,0.0,0.0,0.0,0.0,0.0,0.0,2
-55.0,-153.0,-74.0,-47.0,-2.0,-28.0,-29.0,-30.0,0.0,0.0,0.0,0.0,0.0,0.0,0.0,0.0,2
-40.0,-134.0,-95.0,-62.0,-12.0,-37.0,-35.0,-34.0,0.0,0.0,0.0,0.0,0.0,0.0,0.0,0.0,2
-32.0,-112.0,-123.0,-87.0,-28.0,-48.0,-38.0,-37.0,0.0,0.0,0.0,0.0,0.0,0.0,0.0,0.0,2
-43.0,-68.0,-126.0,-96.0,-43.0,-58.0,-34.0,-38.0,0.0,0.0,0.0,0.0,0.0,0.0,0.0,0.0,2
-31.0,-10.0,-77.0,-91.0,-56.0,-64.0,-44.0,-49.0,0.0,0.0,0.0,0.0,0.0,0.0,0.0,0.0,2
-30.0,1.0,-39.0,-87.0,-64.0,-73.0,-47.0,-41.0,0.0,0.0,0.0,0.0,0.0,0.0,0.0,0.0,2
-52.0,-18.0,-47.0,-92.0,-64.0,-63.0,-40.0,-30.0,0.0,0.0,0.0,0.0,0.0,0.0,0.0,0.0,2
-38.0,22.0,-36.0,-83.0,-60.0,-55.0,-40.0,-32.0,0.0,0.0,0.0,0.0,0.0,0.0,0.0,0.0,2
-8.0,69.0,-26.0,-79.0,-63.0,-60.0,-43.0,-37.0,0.0,0.0,0.0,0.0,0.0,0.0,0.0,0.0,2
13.0,70.0,-27.0,-64.0,-56.0,-55.0,-48.0,-47.0,0.0,0.0,0.0,0.0,0.0,0.0,0.0,0.0,2
27.0,33.0,0.0,-37.0,-41.0,-34.0,-37.0,-57.0,0.0,0.0,0.0,0.0,0.0,0.0,0.0,0.0,2
2.0,-15.0,13.0,-35.0,-29.0,-20.0,-30.0,-49.0,0.0,0.0,0.0,0.0,0.0,0.0,0.0,0.0,2
-38.0,-45.0,-46.0,-46.0,-33.0,-18.0,-22.0,-41.0,0.0,0.0,0.0,0.0,0.0,0.0,0.0,0.0,2
-39.0,-42.0,-75.0,-36.0,-25.0,-10.0,-16.0,-37.0,0.0,0.0,0.0,0.0,0.0,0.0,0.0,0.0,2
-14.0,-36.0,-89.0,-41.0,-19.0,-7.0,-27.0,-42.0,0.0,0.0,0.0,0.0,0.0,0.0,0.0,0.0,2
-34.0,-46.0,-87.0,-40.0,-18.0,-13.0,-29.0,-36.0,0.0,0.0,0.0,0.0,0.0,0.0,0.0,0.0,2
-83.0,-77.0,-60.0,-24.0,-20.0,-18.0,-36.0,-35.0,0.0,0.0,0.0,0.0,0.0,0.0,0.0,0.0,2
-110.0,-106.0,-8.0,-7.0,-11.0,-25.0,-38.0,-33.0,0.0,0.0,0.0,0.0,0.0,0.0,0.0,0.0,2
-87.0,-108.0,84.0,24.0,2.0,-21.0,-29.0,-36.0,0.0,0.0,0.0,0.0,0.0,0.0,0.0,0.0,2
-72.0,-111.0,116.0,44.0,11.0,-18.0,-35.0,-31.0,0.0,0.0,0.0,0.0,0.0,0.0,0.0,0.0,2
-75.0,-127.0,99.0,46.0,14.0,-23.0,-38.0,-26.0,0.0,0.0,0.0,0.0,0.0,0.0,0.0,0.0,2
-42.0,-112.0,52.0,30.0,-10.0,-33.0,-42.0,-25.0,0.0,0.0,0.0,0.0,0.0,0.0,0.0,0.0,2
-17.0,-77.0,11.0,-2.0,-23.0,-45.0,-44.0,-29.0,0.0,0.0,0.0,0.0,0.0,0.0,0.0,0.0,2
4.0,-21.0,-21.0,-41.0,-40.0,-56.0,-51.0,-28.0,0.0,0.0,0.0,0.0,0.0,0.0,0.0,0.0,2
60.0,54.0,-36.0,-75.0,-55.0,-74.0,-68.0,-43.0,0.0,0.0,0.0,0.0,0.0,0.0,0.0,0.0,2
63.0,66.0,-59.0,-86.0,-54.0,-87.0,-72.0,-39.0,0.0,0.0,0.0,0.0,0.0,0.0,0.0,0.0,2
-6.0,14.0,-81.0,-83.0,-56.0,-74.0,-62.0,-37.0,0.0,0.0,0.0,0.0,0.0,0.0,0.0,0.0,2
-32.0,-27.0,-100.0,-96.0,-68.0,-70.0,-65.0,-38.0,0.0,0.0,0.0,0.0,0.0,0.0,0.0,0.0,2
-43.0,-44.0,-105.0,-105.0,-67.0,-72.0,-71.0,-45.0,0.0,0.0,0.0,0.0,0.0,0.0,0.0,0.0,2
-45.0,-44.0,-98.0,-88.0,-56.0,-58.0,-58.0,-47.0,0.0,0.0,0.0,0.0,0.0,0.0,0.0,0.0,2
9.0,-16.0,-74.0,-54.0,-50.0,-44.0,-44.0,-45.0,0.0,0.0,0.0,0.0,0.0,0.0,0.0,0.0,2
14.0,-14.0,-72.0,-43.0,-40.0,-44.0,-36.0,-44.0,0.0,0.0,0.0,0.0,0.0,0.0,0.0,0.0,2
-17.0,-15.0,-61.0,-33.0,-33.0,-38.0,-33.0,-43.0,0.0,0.0,0.0,0.0,0.0,0.0,0.0,0.0,2
-35.0,2.0,-44.0,-14.0,-22.0,-25.0,-28.0,-41.0,0.0,0.0,0.0,0.0,0.0,0.0,0.0,0.0,2
-31.0,43.0,-29.0,0.0,-7.0,-20.0,-25.0,-36.0,0.0,0.0,0.0,0.0,0.0,0.0,0.0,0.0,2
-20.0,57.0,-26.0,3.0,-7.0,-23.0,-19.0,-28.0,0.0,0.0,0.0,0.0,0.0,0.0,0.0,0.0,2
-49.0,7.0,-41.0,-16.0,-14.0,-20.0,-24.0,-26.0,0.0,0.0,0.0,0.0,0.0,0.0,0.0,0.0,2
-76.0,-57.0,-68.0,-32.0,-5.0,-28.0,-33.0,-36.0,0.0,0.0,0.0,0.0,0.0,0.0,0.0,0.0,2
-69.0,-61.0,-67.0,-34.0,3.0,-31.0,-33.0,-38.0,0.0,0.0,0.0,0.0,0.0,0.0,0.0,0.0,2
-63.0,-27.0,-29.0,-26.0,8.0,-20.0,-22.0,-23.0,0.0,0.0,0.0,0.0,0.0,0.0,0.0,0.0,2
-54.0,-53.0,0.0,-26.0,8.0,-15.0,-21.0,-19.0,0.0,0.0,0.0,0.0,0.0,0.0,0.0,0.0,2
-42.0,-134.0,-34.0,-55.0,-9.0,-21.0,-19.0,-19.0,0.0,0.0,0.0,0.0,0.0,0.0,0.0,0.0,2
-82.0,-182.0,-57.0,-68.0,-32.0,-28.0,-23.0,-25.0,0.0,0.0,0.0,0.0,0.0,0.0,0.0,0.0,2
-73.0,-169.0,-43.0,-57.0,-33.0,-33.0,-29.0,-16.0,0.0,0.0,0.0,0.0,0.0,0.0,0.0,0.0,2
-38.0,-130.0,-39.0,-58.0,-50.0,-35.0,-29.0,-19.0,0.0,0.0,0.0,0.0,0.0,0.0,0.0,0.0,2
-58.0,-119.0,-56.0,-33.0,-45.0,-42.0,-26.0,-15.0,0.0,0.0,0.0,0.0,0.0,0.0,0.0,0.0,2
-85.0,-106.0,-55.0,-16.0,-36.0,-40.0,-28.0,-6.0,0.0,0.0,0.0,0.0,0.0,0.0,0.0,0.0,2
-81.0,-75.0,-43.0,-17.0,-43.0,-35.0,-23.0,-10.0,0.0,0.0,0.0,0.0,0.0,0.0,0.0,0.0,2
-80.0,-41.0,-40.0,-23.0,-48.0,-29.0,-16.0,-22.0,0.0,0.0,0.0,0.0,0.0,0.0,0.0,0.0,2
-63.0,-30.0,-63.0,-32.0,-47.0,-36.0,-22.0,-37.0,0.0,0.0,0.0,0.0,0.0,0.0,0.0,0.0,2
-22.0,-26.0,-55.0,-33.0,-32.0,-31.0,-32.0,-48.0,0.0,0.0,0.0,0.0,0.0,0.0,0.0,0.0,2
-20.0,-8.0,-34.0,-37.0,-34.0,-25.0,-23.0,-49.0,0.0,0.0,0.0,0.0,0.0,0.0,0.0,0.0,2
-21.0,24.0,-11.0,-39.0,-34.0,-20.0,-21.0,-48.0,0.0,0.0,0.0,0.0,0.0,0.0,0.0,0.0,2
-7.0,57.0,12.0,-51.0,-42.0,-22.0,-28.0,-41.0,0.0,0.0,0.0,0.0,0.0,0.0,0.0,0.0,2
-13.0,46.0,23.0,-55.0,-40.0,-25.0,-29.0,-49.0,0.0,0.0,0.0,0.0,0.0,0.0,0.0,0.0,2
-32.0,4.0,35.0,-48.0,-36.0,-24.0,-36.0,-48.0,0.0,0.0,0.0,0.0,0.0,0.0,0.0,0.0,2
-52.0,4.0,39.0,-46.0,-34.0,-31.0,-36.0,-43.0,0.0,0.0,0.0,0.0,0.0,0.0,0.0,0.0,2
-45.0,28.0,37.0,-42.0,-15.0,-30.0,-34.0,-49.0,0.0,0.0,0.0,0.0,0.0,0.0,0.0,0.0,2
-16.0,62.0,24.0,-33.0,-15.0,-22.0,-41.0,-53.0,0.0,0.0,0.0,0.0,0.0,0.0,0.0,0.0,2
3.0,92.0,3.0,-28.0,-15.0,-19.0,-42.0,-46.0,0.0,0.0,0.0,0.0,0.0,0.0,0.0,0.0,2
20.0,96.0,2.0,-23.0,-10.0,-18.0,-37.0,-47.0,0.0,0.0,0.0,0.0,0.0,0.0,0.0,0.0,2
51.0,121.0,6.0,-29.0,-13.0,-31.0,-41.0,-56.0,0.0,0.0,0.0,0.0,0.0,0.0,0.0,0.0,2
45.0,103.0,-4.0,-26.0,-20.0,-34.0,-29.0,-45.0,0.0,0.0,0.0,0.0,0.0,0.0,0.0,0.0,2
5.0,11.0,-48.0,-35.0,-35.0,-38.0,-30.0,-32.0,0.0,0.0,0.0,0.0,0.0,0.0,0.0,0.0,2
-5.0,-40.0,-76.0,-30.0,-39.0,-39.0,-26.0,-34.0,0.0,0.0,0.0,0.0,0.0,0.0,0.0,0.0,2
-22.0,-38.0,-83.0,-19.0,-30.0,-37.0,-17.0,-23.0,0.0,0.0,0.0,0.0,0.0,0.0,0.0,0.0,2
-57.0,-64.0,-96.0,-23.0,-35.0,-32.0,-18.0,-21.0,0.0,0.0,0.0,0.0,0.0,0.0,0.0,0.0,2
-71.0,-122.0,-96.0,-39.0,-54.0,-36.0,-20.0,-22.0,0.0,0.0,0.0,0.0,0.0,0.0,0.0,0.0,2
-59.0,-124.0,-92.0,-62.0,-61.0,-33.0,-19.0,-25.0,0.0,0.0,0.0,0.0,0.0,0.0,0.0,0.0,2
-34.0,-98.0,-59.0,-65.0,-64.0,-35.0,-25.0,-38.0,0.0,0.0,0.0,0.0,0.0,0.0,0.0,0.0,2
-18.0,-57.0,-18.0,-53.0,-60.0,-35.0,-30.0,-37.0,0.0,0.0,0.0,0.0,0.0,0.0,0.0,0.0,2
-16.0,9.0,36.0,-20.0,-42.0,-37.0,-28.0,-39.0,0.0,0.0,0.0,0.0,0.0,0.0,0.0,0.0,2
-3.0,107.0,75.0,-19.0,-43.0,-30.0,-22.0,-42.0,0.0,0.0,0.0,0.0,0.0,0.0,0.0,0.0,2
1.0,136.0,67.0,-32.0,-49.0,-29.0,-33.0,-45.0,0.0,0.0,0.0,0.0,0.0,0.0,0.0,0.0,2
-8.0,77.0,41.0,-31.0,-54.0,-35.0,-36.0,-59.0,0.0,0.0,0.0,0.0,0.0,0.0,0.0,0.0,2
-23.0,-14.0,-12.0,-24.0,-48.0,-33.0,-31.0,-58.0,0.0,0.0,0.0,0.0,0.0,0.0,0.0,0.0,2
-66.0,-119.0,-67.0,-47.0,-32.0,-27.0,-29.0,-45.0,0.0,0.0,0.0,0.0,0.0,0.0,0.0,0.0,2
-105.0,-179.0,-82.0,-46.0,-17.0,-22.0,-32.0,-44.0,0.0,0.0,0.0,0.0,0.0,0.0,0.0,0.0,2
-96.0,-193.0,-86.0,-42.0,-8.0,-28.0,-47.0,-47.0,0.0,0.0,0.0,0.0,0.0,0.0,0.0,0.0,2
-81.0,-240.0,-114.0,-47.0,-14.0,-36.0,-53.0,-51.0,0.0,0.0,0.0,0.0,0.0,0.0,0.0,0.0,2
-127.0,-333.0,-190.0,-66.0,-25.0,-43.0,-53.0,-44.0,0.0,0.0,0.0,0.0,0.0,0.0,0.0,0.0,2
-107.0,-248.0,-203.0,-73.0,-32.0,-37.0,-50.0,-45.0,0.0,0.0,0.0,0.0,0.0,0.0,0.0,0.0,2
-53.0,-113.0,-175.0,-61.0,-35.0,-40.0,-52.0,-40.0,0.0,0.0,0.0,0.0,0.0,0.0,0.0,0.0,2
-35.0,-39.0,-139.0,-54.0,-30.0,-41.0,-49.0,-34.0,0.0,0.0,0.0,0.0,0.0,0.0,0.0,0.0,2
-22.0,-29.0,-100.0,-47.0,-30.0,-40.0,-43.0,-32.0,0.0,0.0,0.0,0.0,0.0,0.0,0.0,0.0,2
-40.0,-43.0,-60.0,-36.0,-38.0,-41.0,-33.0,-18.0,0.0,0.0,0.0,0.0,0.0,0.0,0.0,0.0,2
-62.0,-17.0,7.0,-19.0,-45.0,-38.0,-26.0,-10.0,0.0,0.0,0.0,0.0,0.0,0.0,0.0,0.0,2
-60.0,29.0,52.0,-17.0,-47.0,-37.0,-21.0,-4.0,0.0,0.0,0.0,0.0,0.0,0.0,0.0,0.0,2
-37.0,122.0,92.0,-5.0,-41.0,-32.0,-18.0,-11.0,0.0,0.0,0.0,0.0,0.0,0.0,0.0,0.0,2
8.0,182.0,91.0,15.0,-41.0,-33.0,-27.0,-23.0,0.0,0.0,0.0,0.0,0.0,0.0,0.0,0.0,2
22.0,149.0,-27.0,-23.0,-47.0,-35.0,-25.0,-32.0,0.0,0.0,0.0,0.0,0.0,0.0,0.0,0.0,2
14.0,139.0,-129.0,-88.0,-56.0,-39.0,-19.0,-25.0,0.0,0.0,0.0,0.0,0.0,0.0,0.0,0.0,2
20.0,150.0,-171.0,-111.0,-55.0,-35.0,-17.0,-29.0,0.0,0.0,0.0,0.0,0.0,0.0,0.0,0.0,2
32.0,91.0,-117.0,-77.0,-44.0,-28.0,-17.0,-32.0,0.0,0.0,0.0,0.0,0.0,0.0,0.0,0.0,2
19.0,-42.0,-31.0,-42.0,-18.0,-37.0,-21.0,-17.0,0.0,0.0,0.0,0.0,0.0,0.0,0.0,0.0,2
-17.0,-188.0,14.0,-25.0,-13.0,-36.0,-22.0,-20.0,0.0,0.0,0.0,0.0,0.0,0.0,0.0,0.0,2
-70.0,-323.0,77.0,17.0,-13.0,-30.0,-29.0,-24.0,0.0,0.0,0.0,0.0,0.0,0.0,0.0,0.0,2
-88.0,-345.0,162.0,117.0,17.0,-18.0,-21.0,-24.0,0.0,0.0,0.0,0.0,0.0,0.0,0.0,0.0,2
-97.0,-259.0,227.0,224.0,60.0,-6.0,-15.0,-41.0,0.0,0.0,0.0,0.0,0.0,0.0,0.0,0.0,2
-144.0,-142.0,227.0,219.0,56.0,-11.0,-27.0,-60.0,0.0,0.0,0.0,0.0,0.0,0.0,0.0,0.0,2
-136.0,-68.0,100.0,47.0,-2.0,-32.0,-40.0,-79.0,0.0,0.0,0.0,0.0,0.0,0.0,0.0,0.0,2
-71.0,21.0,10.0,-76.0,-45.0,-44.0,-48.0,-77.0,0.0,0.0,0.0,0.0,0.0,0.0,0.0,0.0,2
-39.0,63.0,4.0,-95.0,-58.0,-56.0,-65.0,-72.0,0.0,0.0,0.0,0.0,0.0,0.0,0.0,0.0,2
-43.0,41.0,-44.0,-110.0,-63.0,-60.0,-67.0,-75.0,0.0,0.0,0.0,0.0,0.0,0.0,0.0,0.0,2
-28.0,37.0,-80.0,-100.0,-64.0,-54.0,-62.0,-77.0,0.0,0.0,0.0,0.0,0.0,0.0,0.0,0.0,2
-17.0,50.0,-108.0,-97.0,-70.0,-49.0,-65.0,-72.0,0.0,0.0,0.0,0.0,0.0,0.0,0.0,0.0,2
-27.0,96.0,-109.0,-96.0,-78.0,-58.0,-69.0,-83.0,0.0,0.0,0.0,0.0,0.0,0.0,0.0,0.0,2
-19.0,152.0,-93.0,-86.0,-80.0,-60.0,-65.0,-70.0,0.0,0.0,0.0,0.0,0.0,0.0,0.0,0.0,2
9.0,227.0,-74.0,-83.0,-78.0,-65.0,-51.0,-57.0,0.0,0.0,0.0,0.0,0.0,0.0,0.0,0.0,2
25.0,219.0,-63.0,-88.0,-76.0,-53.0,-37.0,-35.0,0.0,0.0,0.0,0.0,0.0,0.0,0.0,0.0,2
23.0,119.0,-86.0,-86.0,-84.0,-44.0,-28.0,-14.0,0.0,0.0,0.0,0.0,0.0,0.0,0.0,0.0,2
10.0,89.0,-93.0,-82.0,-80.0,-39.0,-20.0,-8.0,0.0,0.0,0.0,0.0,0.0,0.0,0.0,0.0,2
-12.0,74.0,-67.0,-57.0,-59.0,-29.0,-6.0,-1.0,0.0,0.0,0.0,0.0,0.0,0.0,0.0,0.0,2
-34.0,8.0,-90.0,-56.0,-55.0,-34.0,5.0,-2.0,0.0,0.0,0.0,0.0,0.0,0.0,0.0,0.0,2
1.0,-14.0,-106.0,-64.0,-55.0,-42.0,-5.0,-11.0,0.0,0.0,0.0,0.0,0.0,0.0,0.0,0.0,2
66.0,3.0,-96.0,-61.0,-46.0,-44.0,-21.0,-10.0,0.0,0.0,0.0,0.0,0.0,0.0,0.0,0.0,2
98.0,2.0,-75.0,-48.0,-30.0,-39.0,-33.0,-22.0,0.0,0.0,0.0,0.0,0.0,0.0,0.0,0.0,2
83.0,-56.0,-55.0,-34.0,-20.0,-32.0,-37.0,-41.0,0.0,0.0,0.0,0.0,0.0,0.0,0.0,0.0,2
12.0,-107.0,-39.0,-32.0,-19.0,-21.0,-34.0,-36.0,0.0,0.0,0.0,0.0,0.0,0.0,0.0,0.0,2
-70.0,-182.0,-74.0,-48.0,-15.0,-17.0,-17.0,-6.0,0.0,0.0,0.0,0.0,0.0,0.0,0.0,0.0,2
-108.0,-242.0,-110.0,-51.0,-19.0,-11.0,-3.0,3.0,0.0,0.0,0.0,0.0,0.0,0.0,0.0,0.0,2
-83.0,-284.0,-117.0,-47.0,-19.0,-3.0,23.0,-29.0,0.0,0.0,0.0,0.0,0.0,0.0,0.0,0.0,2
-54.0,-243.0,-85.0,-36.0,-30.0,-11.0,30.0,-107.0,0.0,0.0,0.0,0.0,0.0,0.0,0.0,0.0,2
-80.0,-210.0,-43.0,-16.0,-27.0,-8.0,18.0,-78.0,0.0,0.0,0.0,0.0,0.0,0.0,0.0,0.0,2
-132.0,-343.0,-62.0,-12.0,-30.0,-9.0,-16.0,-32.0,0.0,0.0,0.0,0.0,0.0,0.0,0.0,0.0,2
-188.0,-507.0,-115.0,-18.0,-39.0,-16.0,-56.0,-92.0,0.0,0.0,0.0,0.0,0.0,0.0,0.0,0.0,2
-200.0,-461.0,-100.0,-6.0,-34.0,-19.0,-21.0,-77.0,0.0,0.0,0.0,0.0,0.0,0.0,0.0,0.0,2
-105.0,-289.0,7.0,71.0,17.0,6.0,-49.0,-188.0,0.0,0.0,0.0,0.0,0.0,0.0,0.0,0.0,2
-92.0,-199.0,77.0,106.0,35.0,17.0,-145.0,-275.0,0.0,0.0,0.0,0.0,0.0,0.0,0.0,0.0,2
-210.0,-163.0,104.0,124.0,36.0,45.0,-114.0,-187.0,0.0,0.0,0.0,0.0,0.0,0.0,0.0,0.0,2
-212.0,-2.0,127.0,117.0,13.0,30.0,-4.0,27.0,0.0,0.0,0.0,0.0,0.0,0.0,0.0,0.0,2
-111.0,146.0,103.0,72.0,-15.0,-23.0,109.0,347.0,0.0,0.0,0.0,0.0,0.0,0.0,0.0,0.0,2
-57.0,154.0,4.0,-19.0,-61.0,-120.0,128.0,486.0,0.0,0.0,0.0,0.0,0.0,0.0,0.0,0.0,2
70.0,108.0,-112.0,-116.0,-112.0,-86.0,86.0,241.0,0.0,0.0,0.0,0.0,0.0,0.0,0.0,0.0,2
291.0,244.0,-146.0,-182.0,-144.0,-40.0,62.0,95.0,0.0,0.0,0.0,0.0,0.0,0.0,0.0,0.0,2
456.0,436.0,-166.0,-250.0,-179.0,-159.0,-278.0,-66.0,0.0,0.0,0.0,0.0,0.0,0.0,0.0,0.0,2
386.0,258.0,-224.0,-287.0,-204.0,-262.0,-496.0,-298.0,0.0,0.0,0.0,0.0,0.0,0.0,0.0,0.0,2
256.0,90.0,-215.0,-220.0,-149.0,-245.0,-533.0,-440.0,0.0,0.0,0.0,0.0,0.0,0.0,0.0,0.0,2
98.0,96.0,-94.0,-101.0,-58.0,-150.0,-463.0,-468.0,0.0,0.0,0.0,0.0,0.0,0.0,0.0,0.0,2
21.0,206.0,22.0,-33.0,-24.0,-93.0,-295.0,-281.0,0.0,0.0,0.0,0.0,0.0,0.0,0.0,0.0,2
51.0,349.0,120.0,-13.0,-21.0,-93.0,-118.0,146.0,0.0,0.0,0.0,0.0,0.0,0.0,0.0,0.0,2
129.0,470.0,225.0,24.0,-3.0,-119.0,-149.0,400.0,0.0,0.0,0.0,0.0,0.0,0.0,0.0,0.0,2
32.0,497.0,334.0,90.0,50.0,-51.0,-14.0,291.0,0.0,0.0,0.0,0.0,0.0,0.0,0.0,0.0,2
-399.0,622.0,460.0,157.0,107.0,114.0,81.0,86.0,0.0,0.0,0.0,0.0,0.0,0.0,0.0,0.0,2
-748.0,944.0,595.0,205.0,137.0,210.0,218.0,-172.0,0.0,0.0,0.0,0.0,0.0,0.0,0.0,0.0,2
-665.0,716.0,497.0,165.0,115.0,151.0,387.0,-210.0,0.0,0.0,0.0,0.0,0.0,0.0,0.0,0.0,2
-72.0,313.0,331.0,104.0,56.0,67.0,419.0,58.0,0.0,0.0,0.0,0.0,0.0,0.0,0.0,0.0,2
166.0,-128.0,182.0,73.0,18.0,73.0,462.0,435.0,0.0,0.0,0.0,0.0,0.0,0.0,0.0,0.0,2
-71.0,-1026.0,-208.0,-51.0,-49.0,13.0,635.0,794.0,0.0,0.0,0.0,0.0,0.0,0.0,0.0,0.0,2
-148.0,-1848.0,-637.0,-160.0,-106.0,-159.0,569.0,857.0,0.0,0.0,0.0,0.0,0.0,0.0,0.0,0.0,2
-15.0,-2294.0,-869.0,-165.0,-83.0,-249.0,285.0,288.0,0.0,0.0,0.0,0.0,0.0,0.0,0.0,0.0,2
150.0,-2085.0,-917.0,-150.0,-34.0,-146.0,21.0,-481.0,0.0,0.0,0.0,0.0,0.0,0.0,0.0,0.0,2
159.0,-1017.0,-668.0,-148.0,-47.0,-168.0,-320.0,-768.0,0.0,0.0,0.0,0.0,0.0,0.0,0.0,0.0,2
60.0,-307.0,-460.0,-207.0,-132.0,-55.0,-508.0,-1096.0,0.0,0.0,0.0,0.0,0.0,0.0,0.0,0.0,2
27.0,110.0,-321.0,-223.0,-117.0,336.0,-107.0,-655.0,0.0,0.0,0.0,0.0,0.0,0.0,0.0,0.0,2
61.0,672.0,-63.0,-135.0,-11.0,488.0,-23.0,-170.0,0.0,0.0,0.0,0.0,0.0,0.0,0.0,0.0,2
106.0,709.0,142.0,-12.0,63.0,231.0,-528.0,-224.0,0.0,0.0,0.0,0.0,0.0,0.0,0.0,0.0,2
328.0,927.0,366.0,63.0,52.0,-23.0,-540.0,-16.0,0.0,0.0,0.0,0.0,0.0,0.0,0.0,0.0,2
611.0,1513.0,612.0,193.0,107.0,-81.0,-184.0,253.0,0.0,0.0,0.0,0.0,0.0,0.0,0.0,0.0,2
642.0,1699.0,646.0,169.0,54.0,-284.0,-419.0,-356.0,0.0,0.0,0.0,0.0,0.0,0.0,0.0,0.0,2
139.0,1081.0,418.0,33.0,-60.0,-345.0,-659.0,-744.0,0.0,0.0,0.0,0.0,0.0,0.0,0.0,0.0,2
-1028.0,119.0,36.0,-144.0,-139.0,-213.0,-381.0,-370.0,0.0,0.0,0.0,0.0,0.0,0.0,0.0,0.0,2
-1723.0,-816.0,-411.0,-302.0,-185.0,-44.0,-185.0,153.0,0.0,0.0,0.0,0.0,0.0,0.0,0.0,0.0,2
-536.0,-963.0,-627.0,-350.0,-158.0,107.0,-98.0,334.0,0.0,0.0,0.0,0.0,0.0,0.0,0.0,0.0,2
658.0,-651.0,-568.0,-296.0,-104.0,161.0,78.0,117.0,0.0,0.0,0.0,0.0,0.0,0.0,0.0,0.0,2
-78.0,-779.0,-379.0,-116.0,-18.0,92.0,-193.0,-279.0,0.0,0.0,0.0,0.0,0.0,0.0,0.0,0.0,2
-980.0,-743.0,-183.0,37.0,57.0,173.0,300.0,117.0,0.0,0.0,0.0,0.0,0.0,0.0,0.0,0.0,2
-881.0,-111.0,94.0,142.0,100.0,243.0,921.0,558.0,0.0,0.0,0.0,0.0,0.0,0.0,0.0,0.0,2
384.0,539.0,446.0,284.0,158.0,178.0,739.0,500.0,0.0,0.0,0.0,0.0,0.0,0.0,0.0,0.0,2
1112.0,944.0,568.0,304.0,124.0,-48.0,137.0,327.0,0.0,0.0,0.0,0.0,0.0,0.0,0.0,0.0,2
-79.0,666.0,380.0,161.0,-2.0,-262.0,-421.0,-50.0,0.0,0.0,0.0,0.0,0.0,0.0,0.0,0.0,2
-515.0,474.0,190.0,-26.0,-188.0,-625.0,-1105.0,-433.0,0.0,0.0,0.0,0.0,0.0,0.0,0.0,0.0,2
462.0,317.0,35.0,-163.0,-280.0,-722.0,-984.0,-294.0,0.0,0.0,0.0,0.0,0.0,0.0,0.0,0.0,2
668.0,-425.0,-226.0,-200.0,-207.0,-514.0,-547.0,-43.0,0.0,0.0,0.0,0.0,0.0,0.0,0.0,0.0,2
106.0,-1194.0,-533.0,-239.0,-175.0,-410.0,-406.0,-398.0,0.0,0.0,0.0,0.0,0.0,0.0,0.0,0.0,2
103.0,-957.0,-457.0,-182.0,-157.0,-362.0,-189.0,-909.0,0.0,0.0,0.0,0.0,0.0,0.0,0.0,0.0,2
32.0,-270.0,-134.0,-96.0,-140.0,-156.0,586.0,-728.0,0.0,0.0,0.0,0.0,0.0,0.0,0.0,0.0,2
-527.0,-344.0,-5.0,-55.0,-86.0,344.0,1527.0,-175.0,0.0,0.0,0.0,0.0,0.0,0.0,0.0,0.0,2
-834.0,-707.0,-86.0,-4.0,56.0,822.0,1753.0,521.0,0.0,0.0,0.0,0.0,0.0,0.0,0.0,0.0,2
-537.0,-736.0,-159.0,31.0,148.0,707.0,1076.0,775.0,0.0,0.0,0.0,0.0,0.0,0.0,0.0,0.0,2
-176.0,-216.0,67.0,114.0,192.0,441.0,479.0,689.0,0.0,0.0,0.0,0.0,0.0,0.0,0.0,0.0,2
-178.0,355.0,337.0,162.0,182.0,321.0,180.0,399.0,0.0,0.0,0.0,0.0,0.0,0.0,0.0,0.0,2
-65.0,728.0,374.0,114.0,130.0,165.0,-45.0,206.0,0.0,0.0,0.0,0.0,0.0,0.0,0.0,0.0,2
155.0,769.0,245.0,-32.0,-13.0,-133.0,-194.0,52.0,0.0,0.0,0.0,0.0,0.0,0.0,0.0,0.0,2
397.0,372.0,106.0,-84.0,-67.0,-198.0,-293.0,-78.0,0.0,0.0,0.0,0.0,0.0,0.0,0.0,0.0,2
486.0,-225.0,-241.0,-144.0,-75.0,-199.0,-419.0,-16.0,0.0,0.0,0.0,0.0,0.0,0.0,0.0,0.0,2
371.0,-284.0,-455.0,-202.0,-96.0,-243.0,-402.0,159.0,0.0,0.0,0.0,0.0,0.0,0.0,0.0,0.0,2
289.0,160.0,-131.0,-2.0,26.0,-207.0,-90.0,397.0,0.0,0.0,0.0,0.0,0.0,0.0,0.0,0.0,2
342.0,730.0,241.0,117.0,57.0,-198.0,13.0,233.0,0.0,0.0,0.0,0.0,0.0,0.0,0.0,0.0,2
428.0,1032.0,386.0,68.0,-39.0,-305.0,-241.0,-90.0,0.0,0.0,0.0,0.0,0.0,0.0,0.0,0.0,2
333.0,750.0,394.0,60.0,-93.0,-404.0,-746.0,-279.0,0.0,0.0,0.0,0.0,0.0,0.0,0.0,0.0,2
-366.0,-18.0,213.0,61.0,-84.0,-336.0,-959.0,-359.0,0.0,0.0,0.0,0.0,0.0,0.0,0.0,0.0,2
-909.0,-1053.0,-167.0,34.0,-21.0,14.0,-390.0,-240.0,0.0,0.0,0.0,0.0,0.0,0.0,0.0,0.0,2
-655.0,-1044.0,-260.0,31.0,32.0,88.0,-267.0,-123.0,0.0,0.0,0.0,0.0,0.0,0.0,0.0,0.0,2
-237.0,-437.0,-122.0,55.0,46.0,-78.0,-186.0,-106.0,0.0,0.0,0.0,0.0,0.0,0.0,0.0,0.0,2
343.0,80.0,91.0,114.0,81.0,-102.0,-124.0,-132.0,0.0,0.0,0.0,0.0,0.0,0.0,0.0,0.0,2
947.0,425.0,66.0,-24.0,-46.0,-167.0,-262.0,-170.0,0.0,0.0,0.0,0.0,0.0,0.0,0.0,0.0,2
806.0,243.0,-188.0,-240.0,-219.0,-317.0,-519.0,-228.0,0.0,0.0,0.0,0.0,0.0,0.0,0.0,0.0,2
163.0,-271.0,-406.0,-314.0,-246.0,-272.0,-280.0,-113.0,0.0,0.0,0.0,0.0,0.0,0.0,0.0,0.0,2
107.0,-526.0,-451.0,-272.0,-147.0,-50.0,58.0,-50.0,0.0,0.0,0.0,0.0,0.0,0.0,0.0,0.0,2
141.0,-659.0,-469.0,-215.0,-82.0,35.0,48.0,-174.0,0.0,0.0,0.0,0.0,0.0,0.0,0.0,0.0,2
385.0,-402.0,-286.0,-119.0,-36.0,32.0,-17.0,-95.0,0.0,0.0,0.0,0.0,0.0,0.0,0.0,0.0,2
353.0,210.0,45.0,30.0,86.0,303.0,281.0,49.0,0.0,0.0,0.0,0.0,0.0,0.0,0.0,0.0,2
-9.0,651.0,226.0,32.0,111.0,489.0,597.0,62.0,0.0,0.0,0.0,0.0,0.0,0.0,0.0,0.0,2
-732.0,391.0,66.0,-112.0,0.0,306.0,325.0,-143.0,0.0,0.0,0.0,0.0,0.0,0.0,0.0,0.0,2
-1382.0,-187.0,-173.0,-216.0,-135.0,-69.0,-48.0,-450.0,0.0,0.0,0.0,0.0,0.0,0.0,0.0,0.0,2
-702.0,-170.0,-145.0,-185.0,-165.0,-127.0,-136.0,-485.0,0.0,0.0,0.0,0.0,0.0,0.0,0.0,0.0,2
-411.0,-83.0,-72.0,-95.0,-60.0,109.0,75.0,-252.0,0.0,0.0,0.0,0.0,0.0,0.0,0.0,0.0,2
-643.0,47.0,62.0,8.0,55.0,334.0,276.0,-19.0,0.0,0.0,0.0,0.0,0.0,0.0,0.0,0.0,2
-451.0,125.0,267.0,123.0,137.0,459.0,268.0,135.0,0.0,0.0,0.0,0.0,0.0,0.0,0.0,0.0,2
-17.0,120.0,325.0,170.0,166.0,581.0,572.0,442.0,0.0,0.0,0.0,0.0,0.0,0.0,0.0,0.0,2
22.0,-251.0,154.0,137.0,155.0,558.0,928.0,831.0,0.0,0.0,0.0,0.0,0.0,0.0,0.0,0.0,2
-387.0,-622.0,-29.0,72.0,95.0,336.0,856.0,852.0,0.0,0.0,0.0,0.0,0.0,0.0,0.0,0.0,2
-376.0,-660.0,-158.0,26.0,28.0,29.0,554.0,785.0,0.0,0.0,0.0,0.0,0.0,0.0,0.0,0.0,2
-41.0,-246.0,-112.0,8.0,-42.0,-265.0,203.0,701.0,0.0,0.0,0.0,0.0,0.0,0.0,0.0,0.0,2
-289.0,235.0,94.0,15.0,-65.0,-421.0,-135.0,313.0,0.0,0.0,0.0,0.0,0.0,0.0,0.0,0.0,2
-579.0,128.0,111.0,-15.0,-88.0,-534.0,-628.0,-373.0,0.0,0.0,0.0,0.0,0.0,0.0,0.0,0.0,2
-458.0,-202.0,-103.0,-97.0,-155.0,-651.0,-1080.0,-743.0,0.0,0.0,0.0,0.0,0.0,0.0,0.0,0.0,2
-550.0,-382.0,-247.0,-161.0,-185.0,-716.0,-1270.0,-811.0,0.0,0.0,0.0,0.0,0.0,0.0,0.0,0.0,2
-120.0,-247.0,-238.0,-194.0,-202.0,-745.0,-1233.0,-875.0,0.0,0.0,0.0,0.0,0.0,0.0,0.0,0.0,2
552.0,-161.0,-283.0,-247.0,-207.0,-653.0,-948.0,-857.0,0.0,0.0,0.0,0.0,0.0,0.0,0.0,0.0,2
508.0,471.0,-49.0,-209.0,-185.0,-474.0,-637.0,-680.0,0.0,0.0,0.0,0.0,0.0,0.0,0.0,0.0,2
464.0,1389.0,304.0,-139.0,-192.0,-377.0,-574.0,-594.0,0.0,0.0,0.0,0.0,0.0,0.0,0.0,0.0,2
612.0,1340.0,418.0,-60.0,-134.0,-136.0,-141.0,-346.0,0.0,0.0,0.0,0.0,0.0,0.0,0.0,0.0,2
646.0,670.0,272.0,15.0,-13.0,200.0,537.0,95.0,0.0,0.0,0.0,0.0,0.0,0.0,0.0,0.0,2
563.0,-196.0,-125.0,-39.0,24.0,352.0,815.0,220.0,0.0,0.0,0.0,0.0,0.0,0.0,0.0,0.0,2
392.0,-591.0,-381.0,-129.0,-14.0,302.0,736.0,281.0,0.0,0.0,0.0,0.0,0.0,0.0,0.0,0.0,2
165.0,-724.0,-305.0,-103.0,17.0,292.0,608.0,701.0,0.0,0.0,0.0,0.0,0.0,0.0,0.0,0.0,2
383.0,-471.0,-80.0,-9.0,97.0,425.0,636.0,756.0,0.0,0.0,0.0,0.0,0.0,0.0,0.0,0.0,2
576.0,-48.0,47.0,38.0,121.0,304.0,182.0,540.0,0.0,0.0,0.0,0.0,0.0,0.0,0.0,0.0,2
122.0,-124.0,-6.0,-23.0,27.0,-87.0,-657.0,-188.0,0.0,0.0,0.0,0.0,0.0,0.0,0.0,0.0,2
130.0,180.0,-36.0,-99.0,-95.0,-299.0,-953.0,-368.0,0.0,0.0,0.0,0.0,0.0,0.0,0.0,0.0,2
112.0,368.0,64.0,-62.0,-86.0,-308.0,-798.0,-329.0,0.0,0.0,0.0,0.0,0.0,0.0,0.0,0.0,2
-357.0,-88.0,-7.0,12.0,-20.0,-101.0,-362.0,-269.0,0.0,0.0,0.0,0.0,0.0,0.0,0.0,0.0,2
-384.0,-353.0,-122.0,83.0,94.0,184.0,116.0,-108.0,0.0,0.0,0.0,0.0,0.0,0.0,0.0,0.0,2
-254.0,-427.0,-283.0,64.0,119.0,188.0,108.0,-42.0,0.0,0.0,0.0,0.0,0.0,0.0,0.0,0.0,2
-115.0,-225.0,-348.0,75.0,131.0,145.0,143.0,26.0,0.0,0.0,0.0,0.0,0.0,0.0,0.0,0.0,2
61.0,161.0,27.0,220.0,197.0,212.0,298.0,175.0,0.0,0.0,0.0,0.0,0.0,0.0,0.0,0.0,2
-153.0,402.0,445.0,340.0,207.0,156.0,331.0,174.0,0.0,0.0,0.0,0.0,0.0,0.0,0.0,0.0,2
-92.0,501.0,720.0,391.0,166.0,120.0,368.0,165.0,0.0,0.0,0.0,0.0,0.0,0.0,0.0,0.0,2
197.0,170.0,536.0,258.0,78.0,128.0,454.0,113.0,0.0,0.0,0.0,0.0,0.0,0.0,0.0,0.0,2
204.0,-436.0,61.0,55.0,-37.0,81.0,378.0,31.0,0.0,0.0,0.0,0.0,0.0,0.0,0.0,0.0,2
116.0,-563.0,-174.0,25.0,-24.0,33.0,206.0,-12.0,0.0,0.0,0.0,0.0,0.0,0.0,0.0,0.0,2
102.0,-327.0,-141.0,60.0,11.0,-79.0,17.0,-14.0,0.0,0.0,0.0,0.0,0.0,0.0,0.0,0.0,2
0.0,-353.0,-144.0,9.0,-25.0,-172.0,-42.0,5.0,0.0,0.0,0.0,0.0,0.0,0.0,0.0,0.0,2
-343.0,-625.0,-249.0,-71.0,-85.0,-252.0,-95.0,-20.0,0.0,0.0,0.0,0.0,0.0,0.0,0.0,0.0,2
-954.0,-596.0,-241.0,-167.0,-159.0,-346.0,-263.0,-134.0,0.0,0.0,0.0,0.0,0.0,0.0,0.0,0.0,2
-979.0,-79.0,-82.0,-223.0,-222.0,-427.0,-456.0,-252.0,0.0,0.0,0.0,0.0,0.0,0.0,0.0,0.0,2
-487.0,356.0,63.0,-225.0,-254.0,-473.0,-589.0,-317.0,0.0,0.0,0.0,0.0,0.0,0.0,0.0,0.0,2
-83.0,641.0,139.0,-240.0,-277.0,-417.0,-556.0,-250.0,0.0,0.0,0.0,0.0,0.0,0.0,0.0,0.0,2
31.0,353.0,25.0,-272.0,-253.0,-203.0,-146.0,-83.0,0.0,0.0,0.0,0.0,0.0,0.0,0.0,0.0,2
-383.0,-421.0,-286.0,-346.0,-249.0,-45.0,80.0,14.0,0.0,0.0,0.0,0.0,0.0,0.0,0.0,0.0,2
-571.0,-510.0,-286.0,-291.0,-205.0,10.0,118.0,31.0,0.0,0.0,0.0,0.0,0.0,0.0,0.0,0.0,2
-323.0,144.0,32.0,-154.0,-128.0,89.0,210.0,59.0,0.0,0.0,0.0,0.0,0.0,0.0,0.0,0.0,2
10.0,641.0,235.0,-161.0,-126.0,113.0,227.0,45.0,0.0,0.0,0.0,0.0,0.0,0.0,0.0,0.0,2
150.0,302.0,6.0,-290.0,-184.0,98.0,235.0,42.0,0.0,0.0,0.0,0.0,0.0,0.0,0.0,0.0,2
252.0,-286.0,-368.0,-340.0,-184.0,120.0,256.0,56.0,0.0,0.0,0.0,0.0,0.0,0.0,0.0,0.0,2
119.0,-978.0,-843.0,-382.0,-164.0,96.0,197.0,28.0,0.0,0.0,0.0,0.0,0.0,0.0,0.0,0.0,2
166.0,-938.0,-975.0,-392.0,-132.0,66.0,90.0,0.0,0.0,0.0,0.0,0.0,0.0,0.0,0.0,0.0,2
432.0,-44.0,-643.0,-331.0,-114.0,34.0,54.0,32.0,0.0,0.0,0.0,0.0,0.0,0.0,0.0,0.0,2
605.0,760.0,-141.0,-162.0,-34.0,53.0,114.0,129.0,0.0,0.0,0.0,0.0,0.0,0.0,0.0,0.0,2
349.0,553.0,42.0,49.0,85.0,77.0,83.0,87.0,0.0,0.0,0.0,0.0,0.0,0.0,0.0,0.0,2
-132.0,-55.0,156.0,286.0,190.0,97.0,22.0,-36.0,0.0,0.0,0.0,0.0,0.0,0.0,0.0,0.0,2
-352.0,-346.0,337.0,488.0,282.0,132.0,-56.0,-107.0,0.0,0.0,0.0,0.0,0.0,0.0,0.0,0.0,2
-332.0,-92.0,552.0,631.0,363.0,131.0,-143.0,-110.0,0.0,0.0,0.0,0.0,0.0,0.0,0.0,0.0,2
-171.0,379.0,528.0,475.0,296.0,83.0,-236.0,-82.0,0.0,0.0,0.0,0.0,0.0,0.0,0.0,0.0,2
87.0,546.0,441.0,205.0,132.0,-6.0,-299.0,-106.0,0.0,0.0,0.0,0.0,0.0,0.0,0.0,0.0,2
241.0,622.0,371.0,52.0,39.0,-31.0,-227.0,-151.0,0.0,0.0,0.0,0.0,0.0,0.0,0.0,0.0,2
94.0,298.0,159.0,-3.0,25.0,31.0,-71.0,-111.0,0.0,0.0,0.0,0.0,0.0,0.0,0.0,0.0,2
15.0,-89.0,-33.0,-4.0,46.0,129.0,215.0,-11.0,0.0,0.0,0.0,0.0,0.0,0.0,0.0,0.0,2
136.0,-25.0,-99.0,-56.0,-27.0,32.0,178.0,-28.0,0.0,0.0,0.0,0.0,0.0,0.0,0.0,0.0,2
130.0,-117.0,-192.0,-81.0,-52.0,-10.0,34.0,-53.0,0.0,0.0,0.0,0.0,0.0,0.0,0.0,0.0,2
244.0,-169.0,-253.0,-134.0,-83.0,-74.0,-21.0,-42.0,0.0,0.0,0.0,0.0,0.0,0.0,0.0,0.0,2
504.0,-110.0,-186.0,-136.0,-102.0,-161.0,-44.0,18.0,0.0,0.0,0.0,0.0,0.0,0.0,0.0,0.0,2
237.0,-206.0,-157.0,-117.0,-101.0,-111.0,-7.0,-170.0,0.0,0.0,0.0,0.0,0.0,0.0,0.0,0.0,2
-132.0,-395.0,-163.0,-130.0,-74.0,-32.0,122.0,-120.0,0.0,0.0,0.0,0.0,0.0,0.0,0.0,0.0,2
-94.0,-272.0,-66.0,-60.0,-33.0,-69.0,8.0,98.0,0.0,0.0,0.0,0.0,0.0,0.0,0.0,0.0,2
255.0,0.0,11.0,-26.0,-36.0,-177.0,-284.0,155.0,0.0,0.0,0.0,0.0,0.0,0.0,0.0,0.0,2
328.0,202.0,-26.0,-93.0,-89.0,-228.0,-391.0,-42.0,0.0,0.0,0.0,0.0,0.0,0.0,0.0,0.0,2
-40.0,167.0,-17.0,-127.0,-96.0,-103.0,-240.0,-127.0,0.0,0.0,0.0,0.0,0.0,0.0,0.0,0.0,2
-423.0,48.0,6.0,-173.0,-164.0,-243.0,-386.0,-270.0,0.0,0.0,0.0,0.0,0.0,0.0,0.0,0.0,2
-242.0,105.0,10.0,-185.0,-169.0,-104.0,-131.0,-151.0,0.0,0.0,0.0,0.0,0.0,0.0,0.0,0.0,2
-158.0,4.0,4.0,-123.0,-88.0,88.0,34.0,60.0,0.0,0.0,0.0,0.0,0.0,0.0,0.0,0.0,2
-161.0,-268.0,-51.0,-91.0,-92.0,-105.0,2.0,113.0,0.0,0.0,0.0,0.0,0.0,0.0,0.0,0.0,2
-133.0,-164.0,24.0,0.0,-34.0,-160.0,111.0,144.0,0.0,0.0,0.0,0.0,0.0,0.0,0.0,0.0,2
-314.0,-104.0,50.0,49.0,2.0,-168.0,83.0,114.0,0.0,0.0,0.0,0.0,0.0,0.0,0.0,0.0,2
-421.0,-95.0,-13.0,10.0,-26.0,-142.0,123.0,138.0,0.0,0.0,0.0,0.0,0.0,0.0,0.0,0.0,2
-647.0,-216.0,-41.0,23.0,-5.0,-134.0,-125.0,-16.0,0.0,0.0,0.0,0.0,0.0,0.0,0.0,0.0,2
-398.0,-2.0,30.0,73.0,23.0,-188.0,-323.0,-173.0,0.0,0.0,0.0,0.0,0.0,0.0,0.0,0.0,2
39.0,35.0,24.0,70.0,-11.0,-171.0,-177.0,-82.0,0.0,0.0,0.0,0.0,0.0,0.0,0.0,0.0,2
184.0,-116.0,-20.0,81.0,-11.0,-117.0,-257.0,-100.0,0.0,0.0,0.0,0.0,0.0,0.0,0.0,0.0,2
-3.0,-274.0,-47.0,74.0,-18.0,-125.0,-542.0,-339.0,0.0,0.0,0.0,0.0,0.0,0.0,0.0,0.0,2
-322.0,-161.0,32.0,61.0,-21.0,-40.0,-678.0,-562.0,0.0,0.0,0.0,0.0,0.0,0.0,0.0,0.0,2
-288.0,42.0,130.0,110.0,47.0,155.0,-231.0,-248.0,0.0,0.0,0.0,0.0,0.0,0.0,0.0,0.0,2
-73.0,206.0,100.0,65.0,7.0,39.0,-105.0,-156.0,0.0,0.0,0.0,0.0,0.0,0.0,0.0,0.0,2
85.0,141.0,-42.0,-43.0,-83.0,-117.0,0.0,-204.0,0.0,0.0,0.0,0.0,0.0,0.0,0.0,0.0,2
4.0,-207.0,-204.0,-87.0,-89.0,-73.0,336.0,-140.0,0.0,0.0,0.0,0.0,0.0,0.0,0.0,0.0,2
-197.0,-274.0,-244.0,-85.0,-60.0,66.0,699.0,13.0,0.0,0.0,0.0,0.0,0.0,0.0,0.0,0.0,2
-147.0,-47.0,-141.0,-53.0,-13.0,163.0,552.0,263.0,0.0,0.0,0.0,0.0,0.0,0.0,0.0,0.0,2
85.0,-89.0,-82.0,-47.0,-8.0,163.0,187.0,486.0,0.0,0.0,0.0,0.0,0.0,0.0,0.0,0.0,2
111.0,-121.0,-15.0,-22.0,-1.0,137.0,-11.0,519.0,0.0,0.0,0.0,0.0,0.0,0.0,0.0,0.0,2
149.0,217.0,186.0,75.0,74.0,233.0,115.0,267.0,0.0,0.0,0.0,0.0,0.0,0.0,0.0,0.0,2
153.0,302.0,174.0,96.0,116.0,263.0,152.0,-3.0,0.0,0.0,0.0,0.0,0.0,0.0,0.0,0.0,2
233.0,109.0,-17.0,-16.0,40.0,164.0,133.0,-43.0,0.0,0.0,0.0,0.0,0.0,0.0,0.0,0.0,2
254.0,-340.0,-215.0,-104.0,-34.0,19.0,43.0,-73.0,0.0,0.0,0.0,0.0,0.0,0.0,0.0,0.0,2
208.0,-633.0,-341.0,-118.0,-39.0,-66.0,-103.0,-164.0,0.0,0.0,0.0,0.0,0.0,0.0,0.0,0.0,2
58.0,-566.0,-331.0,-136.0,-59.0,-129.0,-276.0,-204.0,0.0,0.0,0.0,0.0,0.0,0.0,0.0,0.0,2
-36.0,81.0,-38.0,-94.0,-61.0,-122.0,-316.0,-212.0,0.0,0.0,0.0,0.0,0.0,0.0,0.0,0.0,2
106.0,579.0,173.0,-42.0,-56.0,-83.0,-227.0,-173.0,0.0,0.0,0.0,0.0,0.0,0.0,0.0,0.0,2
239.0,454.0,119.0,-21.0,-25.0,-38.0,-98.0,-66.0,0.0,0.0,0.0,0.0,0.0,0.0,0.0,0.0,2
204.0,59.0,-123.0,-47.0,-29.0,-32.0,-67.0,-109.0,0.0,0.0,0.0,0.0,0.0,0.0,0.0,0.0,2
160.0,-6.0,-193.0,-57.0,-45.0,-54.0,-34.0,-232.0,0.0,0.0,0.0,0.0,0.0,0.0,0.0,0.0,2
18.0,-172.0,-225.0,-70.0,-71.0,-76.0,34.0,-241.0,0.0,0.0,0.0,0.0,0.0,0.0,0.0,0.0,2
-113.0,-238.0,-162.0,-49.0,-69.0,-78.0,90.0,-43.0,0.0,0.0,0.0,0.0,0.0,0.0,0.0,0.0,2
-297.0,-196.0,13.0,6.0,-13.0,-41.0,127.0,158.0,0.0,0.0,0.0,0.0,0.0,0.0,0.0,0.0,2
-374.0,-115.0,135.0,50.0,45.0,4.0,150.0,301.0,0.0,0.0,0.0,0.0,0.0,0.0,0.0,0.0,2
-258.0,-119.0,84.0,31.0,40.0,13.0,180.0,339.0,0.0,0.0,0.0,0.0,0.0,0.0,0.0,0.0,2
-107.0,-20.0,10.0,-54.0,-35.0,-20.0,109.0,174.0,0.0,0.0,0.0,0.0,0.0,0.0,0.0,0.0,2
110.0,-3.0,-95.0,-157.0,-102.0,-69.0,16.0,31.0,0.0,0.0,0.0,0.0,0.0,0.0,0.0,0.0,2
225.0,-38.0,-125.0,-177.0,-117.0,-94.0,-26.0,-30.0,0.0,0.0,0.0,0.0,0.0,0.0,0.0,0.0,2
166.0,-42.0,-75.0,-149.0,-92.0,-77.0,-33.0,-72.0,0.0,0.0,0.0,0.0,0.0,0.0,0.0,0.0,2
-125.0,-95.0,-26.0,-101.0,-49.0,-52.0,-45.0,-103.0,0.0,0.0,0.0,0.0,0.0,0.0,0.0,0.0,2
-409.0,-67.0,100.0,-13.0,4.0,-31.0,-33.0,-105.0,0.0,0.0,0.0,0.0,0.0,0.0,0.0,0.0,2
-229.0,232.0,259.0,102.0,55.0,-11.0,-11.0,-82.0,0.0,0.0,0.0,0.0,0.0,0.0,0.0,0.0,2
25.0,475.0,345.0,170.0,79.0,0.0,-13.0,-90.0,0.0,0.0,0.0,0.0,0.0,0.0,0.0,0.0,2
142.0,549.0,303.0,139.0,50.0,-11.0,-55.0,-126.0,0.0,0.0,0.0,0.0,0.0,0.0,0.0,0.0,2
237.0,414.0,150.0,94.0,22.0,-14.0,-22.0,-99.0,0.0,0.0,0.0,0.0,0.0,0.0,0.0,0.0,2
61.0,10.0,-52.0,-5.0,-23.0,-23.0,-6.0,-62.0,0.0,0.0,0.0,0.0,0.0,0.0,0.0,0.0,2
-86.0,-435.0,-208.0,-95.0,-50.0,22.0,54.0,-34.0,0.0,0.0,0.0,0.0,0.0,0.0,0.0,0.0,2
-171.0,-515.0,-286.0,-126.0,-67.0,63.0,-8.0,-7.0,0.0,0.0,0.0,0.0,0.0,0.0,0.0,0.0,2
-156.0,-265.0,-244.0,-145.0,-97.0,-67.0,-256.0,-62.0,0.0,0.0,0.0,0.0,0.0,0.0,0.0,0.0,2
-27.0,298.0,-9.0,-88.0,-77.0,-51.0,-201.0,-83.0,0.0,0.0,0.0,0.0,0.0,0.0,0.0,0.0,2
-27.0,625.0,194.0,-11.0,-60.0,-43.0,-94.0,-80.0,0.0,0.0,0.0,0.0,0.0,0.0,0.0,0.0,2
-122.0,539.0,229.0,-7.0,-108.0,-218.0,-290.0,-99.0,0.0,0.0,0.0,0.0,0.0,0.0,0.0,0.0,2
-44.0,187.0,74.0,-53.0,-131.0,-250.0,-270.0,-81.0,0.0,0.0,0.0,0.0,0.0,0.0,0.0,0.0,2
92.0,-419.0,-214.0,-100.0,-103.0,-179.0,-130.0,-48.0,0.0,0.0,0.0,0.0,0.0,0.0,0.0,0.0,2
-19.0,-607.0,-353.0,-142.0,-103.0,-170.0,-116.0,-35.0,0.0,0.0,0.0,0.0,0.0,0.0,0.0,0.0,2
-72.0,-324.0,-237.0,-146.0,-95.0,-180.0,-71.0,-19.0,0.0,0.0,0.0,0.0,0.0,0.0,0.0,0.0,2
-155.0,-364.0,-168.0,-135.0,-62.0,-56.0,32.0,-22.0,0.0,0.0,0.0,0.0,0.0,0.0,0.0,0.0,2
-365.0,-340.0,-226.0,-114.0,-24.0,17.0,37.0,-33.0,0.0,0.0,0.0,0.0,0.0,0.0,0.0,0.0,2
-281.0,-239.0,-205.0,-89.0,-9.0,-21.0,-84.0,-75.0,0.0,0.0,0.0,0.0,0.0,0.0,0.0,0.0,2
-23.0,-234.0,-147.0,-55.0,4.0,-39.0,-59.0,-109.0,0.0,0.0,0.0,0.0,0.0,0.0,0.0,0.0,2
-91.0,-473.0,-188.0,-54.0,-6.0,-38.0,-160.0,-110.0,0.0,0.0,0.0,0.0,0.0,0.0,0.0,0.0,2
-177.0,-579.0,-211.0,-77.0,-22.0,-51.0,-147.0,-67.0,0.0,0.0,0.0,0.0,0.0,0.0,0.0,0.0,2
-132.0,-516.0,-229.0,-110.0,-45.0,-47.0,-46.0,-7.0,0.0,0.0,0.0,0.0,0.0,0.0,0.0,0.0,2
-9.0,77.0,-17.0,-85.0,-41.0,21.0,134.0,139.0,0.0,0.0,0.0,0.0,0.0,0.0,0.0,0.0,2
132.0,589.0,258.0,2.0,-16.0,97.0,268.0,182.0,0.0,0.0,0.0,0.0,0.0,0.0,0.0,0.0,2
309.0,443.0,248.0,35.0,-6.0,107.0,211.0,99.0,0.0,0.0,0.0,0.0,0.0,0.0,0.0,0.0,2
288.0,434.0,265.0,99.0,18.0,119.0,119.0,45.0,0.0,0.0,0.0,0.0,0.0,0.0,0.0,0.0,2
11.0,230.0,231.0,194.0,83.0,108.0,-16.0,21.0,0.0,0.0,0.0,0.0,0.0,0.0,0.0,0.0,2
-205.0,-79.0,113.0,246.0,124.0,74.0,-91.0,-4.0,0.0,0.0,0.0,0.0,0.0,0.0,0.0,0.0,2
-260.0,-216.0,-9.0,161.0,85.0,15.0,-20.0,-39.0,0.0,0.0,0.0,0.0,0.0,0.0,0.0,0.0,2
-287.0,-363.0,-120.0,61.0,31.0,20.0,110.0,-99.0,0.0,0.0,0.0,0.0,0.0,0.0,0.0,0.0,2
-269.0,-258.0,-154.0,-26.0,-33.0,-134.0,-58.0,-153.0,0.0,0.0,0.0,0.0,0.0,0.0,0.0,0.0,2
-38.0,34.0,-62.0,-47.0,-62.0,-215.0,-249.0,-140.0,0.0,0.0,0.0,0.0,0.0,0.0,0.0,0.0,2
304.0,321.0,53.0,-28.0,-40.0,-121.0,-232.0,-163.0,0.0,0.0,0.0,0.0,0.0,0.0,0.0,0.0,2
258.0,487.0,116.0,-17.0,-5.0,-19.0,-121.0,-195.0,0.0,0.0,0.0,0.0,0.0,0.0,0.0,0.0,2
96.0,375.0,86.0,-44.0,-11.0,9.0,-32.0,-5.0,0.0,0.0,0.0,0.0,0.0,0.0,0.0,0.0,2
113.0,264.0,39.0,-65.0,-27.0,44.0,104.0,160.0,0.0,0.0,0.0,0.0,0.0,0.0,0.0,0.0,2
81.0,153.0,27.0,-98.0,-68.0,0.0,247.0,92.0,0.0,0.0,0.0,0.0,0.0,0.0,0.0,0.0,2
4.0,2.0,-50.0,-99.0,-83.0,-61.0,186.0,64.0,0.0,0.0,0.0,0.0,0.0,0.0,0.0,0.0,2
-41.0,0.0,-83.0,-76.0,-44.0,16.0,49.0,17.0,0.0,0.0,0.0,0.0,0.0,0.0,0.0,0.0,2
-158.0,-201.0,-170.0,-98.0,-54.0,-86.0,-198.0,-91.0,0.0,0.0,0.0,0.0,0.0,0.0,0.0,0.0,2
-56.0,-494.0,-385.0,-177.0,-117.0,-197.0,-294.0,-161.0,0.0,0.0,0.0,0.0,0.0,0.0,0.0,0.0,2
-55.0,-498.0,-443.0,-220.0,-146.0,-160.0,-195.0,-155.0,0.0,0.0,0.0,0.0,0.0,0.0,0.0,0.0,2
-65.0,-332.0,-263.0,-148.0,-135.0,-122.0,-149.0,-169.0,0.0,0.0,0.0,0.0,0.0,0.0,0.0,0.0,2
-102.0,-318.0,-107.0,-102.0,-136.0,-129.0,-237.0,-210.0,0.0,0.0,0.0,0.0,0.0,0.0,0.0,0.0,2
-81.0,-167.0,30.0,-19.0,-90.0,-85.0,-266.0,-197.0,0.0,0.0,0.0,0.0,0.0,0.0,0.0,0.0,2
-52.0,72.0,103.0,23.0,-41.0,-50.0,-184.0,-146.0,0.0,0.0,0.0,0.0,0.0,0.0,0.0,0.0,2
-141.0,43.0,79.0,-17.0,-70.0,-60.0,-77.0,-142.0,0.0,0.0,0.0,0.0,0.0,0.0,0.0,0.0,2
-241.0,-186.0,-89.0,-93.0,-104.0,-29.0,58.0,-120.0,0.0,0.0,0.0,0.0,0.0,0.0,0.0,0.0,2
-111.0,-188.0,-173.0,-81.0,-58.0,94.0,269.0,109.0,0.0,0.0,0.0,0.0,0.0,0.0,0.0,0.0,2
41.0,-103.0,-100.0,-6.0,30.0,292.0,515.0,358.0,0.0,0.0,0.0,0.0,0.0,0.0,0.0,0.0,2
60.0,-80.0,-19.0,31.0,47.0,231.0,347.0,309.0,0.0,0.0,0.0,0.0,0.0,0.0,0.0,0.0,2
69.0,-58.0,35.0,35.0,19.0,113.0,209.0,123.0,0.0,0.0,0.0,0.0,0.0,0.0,0.0,0.0,2
68.0,151.0,127.0,52.0,25.0,130.0,194.0,90.0,0.0,0.0,0.0,0.0,0.0,0.0,0.0,0.0,2
-90.0,444.0,202.0,14.0,-12.0,114.0,78.0,70.0,0.0,0.0,0.0,0.0,0.0,0.0,0.0,0.0,2
-285.0,518.0,236.0,-2.0,-32.0,39.0,-100.0,-56.0,0.0,0.0,0.0,0.0,0.0,0.0,0.0,0.0,2
-141.0,314.0,110.0,-34.0,-41.0,-55.0,-145.0,-161.0,0.0,0.0,0.0,0.0,0.0,0.0,0.0,0.0,2
-62.0,-48.0,-35.0,-60.0,-44.0,-113.0,-99.0,-83.0,0.0,0.0,0.0,0.0,0.0,0.0,0.0,0.0,2
-172.0,-357.0,-125.0,-47.0,-15.0,-122.0,-160.0,-156.0,0.0,0.0,0.0,0.0,0.0,0.0,0.0,0.0,2
-103.0,-434.0,-192.0,-45.0,-13.0,-133.0,-170.0,-159.0,0.0,0.0,0.0,0.0,0.0,0.0,0.0,0.0,2
66.0,-265.0,-148.0,-35.0,-11.0,-110.0,-63.0,-137.0,0.0,0.0,0.0,0.0,0.0,0.0,0.0,0.0,2
193.0,-24.0,-43.0,-22.0,-38.0,-118.0,-232.0,-247.0,0.0,0.0,0.0,0.0,0.0,0.0,0.0,0.0,2
208.0,164.0,-15.0,-15.0,-47.0,-140.0,-381.0,-265.0,0.0,0.0,0.0,0.0,0.0,0.0,0.0,0.0,2
178.0,215.0,24.0,17.0,-26.0,-119.0,-372.0,-117.0,0.0,0.0,0.0,0.0,0.0,0.0,0.0,0.0,2
85.0,165.0,50.0,31.0,-25.0,-67.0,-263.0,-13.0,0.0,0.0,0.0,0.0,0.0,0.0,0.0,0.0,2
7.0,57.0,29.0,-10.0,-74.0,-74.0,-145.0,20.0,0.0,0.0,0.0,0.0,0.0,0.0,0.0,0.0,2
20.0,-82.0,-36.0,-34.0,-99.0,-144.0,-207.0,-9.0,0.0,0.0,0.0,0.0,0.0,0.0,0.0,0.0,2
-36.0,-99.0,-84.0,-28.0,-68.0,-146.0,-260.0,-1.0,0.0,0.0,0.0,0.0,0.0,0.0,0.0,0.0,2
-316.0,-216.0,-156.0,-62.0,-71.0,-202.0,-411.0,-168.0,0.0,0.0,0.0,0.0,0.0,0.0,0.0,0.0,2
-475.0,-436.0,-148.0,-17.0,-29.0,-113.0,-252.0,-367.0,0.0,0.0,0.0,0.0,0.0,0.0,0.0,0.0,2
-288.0,-436.0,-33.0,135.0,123.0,210.0,373.0,-125.0,0.0,0.0,0.0,0.0,0.0,0.0,0.0,0.0,2
26.0,-303.0,27.0,144.0,115.0,132.0,338.0,273.0,0.0,0.0,0.0,0.0,0.0,0.0,0.0,0.0,2
453.0,158.0,123.0,97.0,60.0,82.0,253.0,373.0,0.0,0.0,0.0,0.0,0.0,0.0,0.0,0.0,2
573.0,755.0,153.0,-4.0,-9.0,39.0,152.0,166.0,0.0,0.0,0.0,0.0,0.0,0.0,0.0,0.0,2
351.0,1071.0,176.0,-92.0,-53.0,-7.0,53.0,-2.0,0.0,0.0,0.0,0.0,0.0,0.0,0.0,0.0,2
-95.0,706.0,147.0,-117.0,-80.0,-30.0,57.0,7.0,0.0,0.0,0.0,0.0,0.0,0.0,0.0,0.0,2
-226.0,-109.0,-1.0,-66.0,-42.0,4.0,114.0,83.0,0.0,0.0,0.0,0.0,0.0,0.0,0.0,0.0,2
-263.0,-498.0,-130.0,-52.0,-29.0,5.0,77.0,22.0,0.0,0.0,0.0,0.0,0.0,0.0,0.0,0.0,2
-217.0,-449.0,-202.0,-92.0,-59.0,-22.0,22.0,-56.0,0.0,0.0,0.0,0.0,0.0,0.0,0.0,0.0,2
-68.0,-380.0,-229.0,-135.0,-83.0,-45.0,33.0,3.0,0.0,0.0,0.0,0.0,0.0,0.0,0.0,0.0,2
219.0,-208.0,-159.0,-125.0,-75.0,-33.0,35.0,-17.0,0.0,0.0,0.0,0.0,0.0,0.0,0.0,0.0,2
212.0,-160.0,-148.0,-129.0,-84.0,-44.0,-25.0,-202.0,0.0,0.0,0.0,0.0,0.0,0.0,0.0,0.0,2
-43.0,-85.0,-120.0,-147.0,-105.0,-73.0,-76.0,-281.0,0.0,0.0,0.0,0.0,0.0,0.0,0.0,0.0,2
-298.0,-73.0,-72.0,-114.0,-85.0,-55.0,-41.0,-107.0,0.0,0.0,0.0,0.0,0.0,0.0,0.0,0.0,2
-243.0,-84.0,-47.0,-91.0,-71.0,-53.0,-62.0,-2.0,0.0,0.0,0.0,0.0,0.0,0.0,0.0,0.0,2
-263.0,-147.0,-46.0,-51.0,-56.0,-56.0,-83.0,9.0,0.0,0.0,0.0,0.0,0.0,0.0,0.0,0.0,2
-226.0,-178.0,-22.0,-5.0,-35.0,-45.0,-54.0,-64.0,0.0,0.0,0.0,0.0,0.0,0.0,0.0,0.0,2
-26.0,-115.0,-6.0,56.0,6.0,12.0,62.0,-44.0,0.0,0.0,0.0,0.0,0.0,0.0,0.0,0.0,2
69.0,-117.0,-7.0,93.0,56.0,57.0,192.0,43.0,0.0,0.0,0.0,0.0,0.0,0.0,0.0,0.0,2
-115.0,-211.0,-53.0,85.0,57.0,34.0,233.0,110.0,0.0,0.0,0.0,0.0,0.0,0.0,0.0,0.0,2
-304.0,-243.0,-117.0,-14.0,-20.0,-103.0,-89.0,-41.0,0.0,0.0,0.0,0.0,0.0,0.0,0.0,0.0,2
-316.0,-226.0,-126.0,-54.0,-62.0,-120.0,-473.0,-182.0,0.0,0.0,0.0,0.0,0.0,0.0,0.0,0.0,2
-179.0,-39.0,5.0,33.0,20.0,82.0,-207.0,-78.0,0.0,0.0,0.0,0.0,0.0,0.0,0.0,0.0,2
15.0,144.0,67.0,61.0,43.0,111.0,48.0,17.0,0.0,0.0,0.0,0.0,0.0,0.0,0.0,0.0,2
172.0,-35.0,-17.0,45.0,24.0,31.0,8.0,31.0,0.0,0.0,0.0,0.0,0.0,0.0,0.0,0.0,2
160.0,-250.0,-87.0,73.0,49.0,30.0,53.0,78.0,0.0,0.0,0.0,0.0,0.0,0.0,0.0,0.0,2
74.0,-315.0,-127.0,61.0,42.0,17.0,-3.0,18.0,0.0,0.0,0.0,0.0,0.0,0.0,0.0,0.0,2
14.0,-195.0,-128.0,2.0,15.0,-18.0,-69.0,-60.0,0.0,0.0,0.0,0.0,0.0,0.0,0.0,0.0,2
55.0,70.0,-15.0,-6.0,0.0,-60.0,-72.0,-67.0,0.0,0.0,0.0,0.0,0.0,0.0,0.0,0.0,2
68.0,204.0,18.0,-36.0,-21.0,-119.0,-130.0,-6.0,0.0,0.0,0.0,0.0,0.0,0.0,0.0,0.0,2
14.0,170.0,8.0,-66.0,-38.0,-116.0,-115.0,59.0,0.0,0.0,0.0,0.0,0.0,0.0,0.0,0.0,2
39.0,82.0,35.0,-74.0,-42.0,-83.0,-41.0,86.0,0.0,0.0,0.0,0.0,0.0,0.0,0.0,0.0,2
115.0,95.0,145.0,-89.0,-67.0,-92.0,-54.0,23.0,0.0,0.0,0.0,0.0,0.0,0.0,0.0,0.0,2
48.0,247.0,279.0,-72.0,-75.0,-90.0,-58.0,-13.0,0.0,0.0,0.0,0.0,0.0,0.0,0.0,0.0,2
37.0,442.0,271.0,-82.0,-107.0,-118.0,-133.0,-79.0,0.0,0.0,0.0,0.0,0.0,0.0,0.0,0.0,2
117.0,569.0,218.0,-83.0,-114.0,-123.0,-140.0,-104.0,0.0,0.0,0.0,0.0,0.0,0.0,0.0,0.0,2
190.0,410.0,-37.0,-137.0,-135.0,-131.0,-112.0,-125.0,0.0,0.0,0.0,0.0,0.0,0.0,0.0,0.0,2
203.0,153.0,-443.0,-230.0,-185.0,-173.0,-119.0,-196.0,0.0,0.0,0.0,0.0,0.0,0.0,0.0,0.0,2
53.0,-48.0,-449.0,-135.0,-124.0,-144.0,-83.0,-164.0,0.0,0.0,0.0,0.0,0.0,0.0,0.0,0.0,2
-70.0,-174.0,-197.0,22.0,-21.0,-67.0,-29.0,-126.0,0.0,0.0,0.0,0.0,0.0,0.0,0.0,0.0,2
-103.0,-263.0,-39.0,64.0,14.0,-24.0,2.0,-113.0,0.0,0.0,0.0,0.0,0.0,0.0,0.0,0.0,2
-165.0,-286.0,6.0,41.0,13.0,26.0,51.0,-75.0,0.0,0.0,0.0,0.0,0.0,0.0,0.0,0.0,2
-216.0,-255.0,12.0,26.0,38.0,143.0,175.0,-20.0,0.0,0.0,0.0,0.0,0.0,0.0,0.0,0.0,2
-235.0,-209.0,37.0,12.0,37.0,148.0,150.0,-5.0,0.0,0.0,0.0,0.0,0.0,0.0,0.0,0.0,2
-195.0,-101.0,61.0,-15.0,3.0,57.0,43.0,4.0,0.0,0.0,0.0,0.0,0.0,0.0,0.0,0.0,2
-131.0,-29.0,45.0,-34.0,-14.0,24.0,-15.0,49.0,0.0,0.0,0.0,0.0,0.0,0.0,0.0,0.0,2
-89.0,-105.0,-38.0,-63.0,-29.0,10.0,-6.0,90.0,0.0,0.0,0.0,0.0,0.0,0.0,0.0,0.0,2
-84.0,-191.0,-127.0,-102.0,-60.0,-34.0,-79.0,18.0,0.0,0.0,0.0,0.0,0.0,0.0,0.0,0.0,2
-66.0,-183.0,-170.0,-130.0,-80.0,-65.0,-152.0,-34.0,0.0,0.0,0.0,0.0,0.0,0.0,0.0,0.0,2
-28.0,-152.0,-163.0,-141.0,-90.0,-49.0,-69.0,-28.0,0.0,0.0,0.0,0.0,0.0,0.0,0.0,0.0,2
24.0,-114.0,-98.0,-121.0,-86.0,-52.0,-48.0,-3.0,0.0,0.0,0.0,0.0,0.0,0.0,0.0,0.0,2
-28.0,-273.0,-97.0,-66.0,-37.0,-15.0,-48.0,42.0,0.0,0.0,0.0,0.0,0.0,0.0,0.0,0.0,2
-79.0,-282.0,-55.0,6.0,34.0,34.0,-57.0,44.0,0.0,0.0,0.0,0.0,0.0,0.0,0.0,0.0,2
-122.0,-211.0,14.0,68.0,59.0,64.0,-7.0,29.0,0.0,0.0,0.0,0.0,0.0,0.0,0.0,0.0,2
-203.0,-223.0,-36.0,49.0,22.0,60.0,150.0,-7.0,0.0,0.0,0.0,0.0,0.0,0.0,0.0,0.0,2
-127.0,-9.0,-97.0,-38.0,-35.0,62.0,275.0,-13.0,0.0,0.0,0.0,0.0,0.0,0.0,0.0,0.0,2
103.0,273.0,-25.0,-22.0,-9.0,66.0,257.0,36.0,0.0,0.0,0.0,0.0,0.0,0.0,0.0,0.0,2
178.0,231.0,-62.0,-63.0,-43.0,-48.0,-60.0,-54.0,0.0,0.0,0.0,0.0,0.0,0.0,0.0,0.0,2
90.0,85.0,-74.0,-73.0,-79.0,-115.0,-290.0,-183.0,0.0,0.0,0.0,0.0,0.0,0.0,0.0,0.0,2
-109.0,-65.0,1.0,-12.0,-60.0,-101.0,-128.0,-130.0,0.0,0.0,0.0,0.0,0.0,0.0,0.0,0.0,2
-187.0,-37.0,149.0,77.0,-3.0,-70.0,68.0,-84.0,0.0,0.0,0.0,0.0,0.0,0.0,0.0,0.0,2
-163.0,152.0,263.0,140.0,44.0,-62.0,-62.0,-14.0,0.0,0.0,0.0,0.0,0.0,0.0,0.0,0.0,2
-57.0,321.0,201.0,104.0,10.0,-133.0,-209.0,-38.0,0.0,0.0,0.0,0.0,0.0,0.0,0.0,0.0,2
247.0,381.0,12.0,-1.0,-69.0,-157.0,-230.0,-92.0,0.0,0.0,0.0,0.0,0.0,0.0,0.0,0.0,2
295.0,196.0,-224.0,-126.0,-127.0,-135.0,-167.0,-101.0,0.0,0.0,0.0,0.0,0.0,0.0,0.0,0.0,2
117.0,-147.0,-400.0,-183.0,-143.0,-99.0,-123.0,-92.0,0.0,0.0,0.0,0.0,0.0,0.0,0.0,0.0,2
-140.0,-493.0,-337.0,-126.0,-89.0,-42.0,-108.0,-66.0,0.0,0.0,0.0,0.0,0.0,0.0,0.0,0.0,2
-262.0,-357.0,-147.0,-60.0,-49.0,-5.0,-77.0,-55.0,0.0,0.0,0.0,0.0,0.0,0.0,0.0,0.0,2
-235.0,-139.0,11.0,-10.0,-34.0,-27.0,-34.0,-73.0,0.0,0.0,0.0,0.0,0.0,0.0,0.0,0.0,2
-85.0,-89.0,60.0,22.0,-8.0,23.0,36.0,-27.0,0.0,0.0,0.0,0.0,0.0,0.0,0.0,0.0,2
51.0,41.0,74.0,7.0,3.0,44.0,33.0,62.0,0.0,0.0,0.0,0.0,0.0,0.0,0.0,0.0,2
109.0,179.0,69.0,-20.0,-1.0,-29.0,-95.0,21.0,0.0,0.0,0.0,0.0,0.0,0.0,0.0,0.0,2
128.0,289.0,116.0,7.0,9.0,-10.0,-129.0,-29.0,0.0,0.0,0.0,0.0,0.0,0.0,0.0,0.0,2
-190.0,165.0,120.0,-9.0,-19.0,-5.0,-22.0,-85.0,0.0,0.0,0.0,0.0,0.0,0.0,0.0,0.0,2
-361.0,-27.0,18.0,-73.0,-71.0,-15.0,82.0,-71.0,0.0,0.0,0.0,0.0,0.0,0.0,0.0,0.0,2
-35.0,-44.0,-22.0,-85.0,-80.0,-44.0,39.0,-35.0,0.0,0.0,0.0,0.0,0.0,0.0,0.0,0.0,2
237.0,-71.0,-56.0,-95.0,-73.0,-38.0,35.0,-37.0,0.0,0.0,0.0,0.0,0.0,0.0,0.0,0.0,2
30.0,-174.0,-107.0,-96.0,-55.0,48.0,158.0,19.0,0.0,0.0,0.0,0.0,0.0,0.0,0.0,0.0,2
-306.0,-228.0,-115.0,-63.0,-33.0,66.0,260.0,180.0,0.0,0.0,0.0,0.0,0.0,0.0,0.0,0.0,2
-338.0,-165.0,-75.0,-45.0,-17.0,48.0,130.0,163.0,0.0,0.0,0.0,0.0,0.0,0.0,0.0,0.0,2
-30.0,-96.0,-85.0,-75.0,-47.0,-26.0,-161.0,-101.0,0.0,0.0,0.0,0.0,0.0,0.0,0.0,0.0,2
80.0,-100.0,-119.0,-85.0,-54.0,-34.0,-230.0,-163.0,0.0,0.0,0.0,0.0,0.0,0.0,0.0,0.0,2
113.0,-108.0,-88.0,-42.0,-21.0,14.0,-92.0,-41.0,0.0,0.0,0.0,0.0,0.0,0.0,0.0,0.0,2
24.0,-107.0,-10.0,-6.0,11.0,30.0,-36.0,8.0,0.0,0.0,0.0,0.0,0.0,0.0,0.0,0.0,2
-101.0,-121.0,51.0,10.0,9.0,8.0,-74.0,-21.0,0.0,0.0,0.0,0.0,0.0,0.0,0.0,0.0,2
-128.0,-94.0,60.0,3.0,-5.0,-13.0,-109.0,-59.0,0.0,0.0,0.0,0.0,0.0,0.0,0.0,0.0,2
-17.0,-48.0,92.0,13.0,-1.0,-27.0,-81.0,-62.0,0.0,0.0,0.0,0.0,0.0,0.0,0.0,0.0,2
32.0,-22.0,95.0,16.0,-22.0,-48.0,-53.0,-21.0,0.0,0.0,0.0,0.0,0.0,0.0,0.0,0.0,2
0.0,8.0,54.0,4.0,-20.0,-58.0,-10.0,13.0,0.0,0.0,0.0,0.0,0.0,0.0,0.0,0.0,2
119.0,207.0,35.0,-5.0,-19.0,-52.0,-13.0,-36.0,0.0,0.0,0.0,0.0,0.0,0.0,0.0,0.0,2
256.0,262.0,29.0,-5.0,-4.0,-63.0,-73.0,-68.0,0.0,0.0,0.0,0.0,0.0,0.0,0.0,0.0,2
188.0,110.0,-19.0,-13.0,1.0,-19.0,-126.0,-66.0,0.0,0.0,0.0,0.0,0.0,0.0,0.0,0.0,2
37.0,-5.0,-79.0,-39.0,3.0,17.0,-19.0,-80.0,0.0,0.0,0.0,0.0,0.0,0.0,0.0,0.0,2
-163.0,-119.0,-140.0,-89.0,-24.0,-3.0,103.0,-86.0,0.0,0.0,0.0,0.0,0.0,0.0,0.0,0.0,2
-191.0,-165.0,-172.0,-120.0,-57.0,-13.0,201.0,-40.0,0.0,0.0,0.0,0.0,0.0,0.0,0.0,0.0,2
-151.0,-165.0,-153.0,-102.0,-69.0,-53.0,154.0,39.0,0.0,0.0,0.0,0.0,0.0,0.0,0.0,0.0,2
-87.0,-147.0,-137.0,-93.0,-69.0,-93.0,-10.0,32.0,0.0,0.0,0.0,0.0,0.0,0.0,0.0,0.0,2
-4.0,-122.0,-124.0,-93.0,-78.0,-113.0,-278.0,-125.0,0.0,0.0,0.0,0.0,0.0,0.0,0.0,0.0,2
64.0,-65.0,-82.0,-80.0,-73.0,-114.0,-349.0,-97.0,0.0,0.0,0.0,0.0,0.0,0.0,0.0,0.0,2
61.0,-2.0,-23.0,-30.0,-38.0,-79.0,-230.0,40.0,0.0,0.0,0.0,0.0,0.0,0.0,0.0,0.0,2
-44.0,19.0,10.0,-3.0,-21.0,-71.0,-120.0,35.0,0.0,0.0,0.0,0.0,0.0,0.0,0.0,0.0,2
-197.0,0.0,3.0,-20.0,-32.0,-78.0,-81.0,-37.0,0.0,0.0,0.0,0.0,0.0,0.0,0.0,0.0,2
-171.0,17.0,-14.0,-30.0,-33.0,-31.0,-27.0,-52.0,0.0,0.0,0.0,0.0,0.0,0.0,0.0,0.0,2
-71.0,93.0,16.0,-10.0,-16.0,-1.0,26.0,-12.0,0.0,0.0,0.0,0.0,0.0,0.0,0.0,0.0,2
-22.0,88.0,29.0,11.0,12.0,28.0,58.0,15.0,0.0,0.0,0.0,0.0,0.0,0.0,0.0,0.0,2
-40.0,-31.0,-13.0,-9.0,7.0,7.0,29.0,-24.0,0.0,0.0,0.0,0.0,0.0,0.0,0.0,0.0,2
-39.0,-157.0,-42.0,-24.0,-5.0,-14.0,2.0,-73.0,0.0,0.0,0.0,0.0,0.0,0.0,0.0,0.0,2
14.0,-149.0,-25.0,-11.0,7.0,-6.0,12.0,-59.0,0.0,0.0,0.0,0.0,0.0,0.0,0.0,0.0,2
12.0,-76.0,-9.0,6.0,21.0,-2.0,9.0,-60.0,0.0,0.0,0.0,0.0,0.0,0.0,0.0,0.0,2
36.0,9.0,-17.0,-9.0,12.0,-8.0,11.0,-55.0,0.0,0.0,0.0,0.0,0.0,0.0,0.0,0.0,2
56.0,45.0,-38.0,-37.0,-12.0,-12.0,27.0,-36.0,0.0,0.0,0.0,0.0,0.0,0.0,0.0,0.0,2
34.0,-16.0,-73.0,-55.0,-35.0,-27.0,39.0,-28.0,0.0,0.0,0.0,0.0,0.0,0.0,0.0,0.0,2
11.0,-81.0,-89.0,-68.0,-49.0,-42.0,19.0,-45.0,0.0,0.0,0.0,0.0,0.0,0.0,0.0,0.0,2
-33.0,-130.0,-112.0,-87.0,-71.0,-62.0,-25.0,-61.0,0.0,0.0,0.0,0.0,0.0,0.0,0.0,0.0,2
-55.0,-87.0,-80.0,-68.0,-50.0,-39.0,7.0,-18.0,0.0,0.0,0.0,0.0,0.0,0.0,0.0,0.0,2
-121.0,-76.0,-70.0,-75.0,-60.0,-34.0,17.0,-4.0,0.0,0.0,0.0,0.0,0.0,0.0,0.0,0.0,2
-62.0,-31.0,-68.0,-83.0,-88.0,-103.0,-67.0,-41.0,0.0,0.0,0.0,0.0,0.0,0.0,0.0,0.0,2
7.0,9.0,-34.0,-64.0,-92.0,-137.0,-132.0,-83.0,0.0,0.0,0.0,0.0,0.0,0.0,0.0,0.0,2
-2.0,29.0,0.0,-26.0,-60.0,-95.0,-84.0,-64.0,0.0,0.0,0.0,0.0,0.0,0.0,0.0,0.0,2
-61.0,23.0,-5.0,-20.0,-53.0,-79.0,-64.0,-61.0,0.0,0.0,0.0,0.0,0.0,0.0,0.0,0.0,2
-103.0,0.0,-9.0,-28.0,-70.0,-90.0,-110.0,-86.0,0.0,0.0,0.0,0.0,0.0,0.0,0.0,0.0,2
-102.0,14.0,-10.0,-35.0,-72.0,-66.0,-86.0,-81.0,0.0,0.0,0.0,0.0,0.0,0.0,0.0,0.0,2
-86.0,53.0,5.0,-26.0,-45.0,-12.0,-22.0,-48.0,0.0,0.0,0.0,0.0,0.0,0.0,0.0,0.0,2
-62.0,88.0,31.0,-11.0,-26.0,32.0,8.0,-7.0,0.0,0.0,0.0,0.0,0.0,0.0,0.0,0.0,2
-67.0,45.0,37.0,3.0,-14.0,63.0,27.0,31.0,0.0,0.0,0.0,0.0,0.0,0.0,0.0,0.0,2
-111.0,-107.0,9.0,14.0,-3.0,72.0,25.0,35.0,0.0,0.0,0.0,0.0,0.0,0.0,0.0,0.0,2
-135.0,-184.0,-17.0,5.0,-3.0,52.0,20.0,33.0,0.0,0.0,0.0,0.0,0.0,0.0,0.0,0.0,2
-111.0,-168.0,-61.0,-31.0,-29.0,-12.0,-27.0,0.0,0.0,0.0,0.0,0.0,0.0,0.0,0.0,0.0,2
-44.0,-153.0,-113.0,-79.0,-67.0,-94.0,-159.0,-92.0,0.0,0.0,0.0,0.0,0.0,0.0,0.0,0.0,2
47.0,-19.0,-110.0,-107.0,-85.0,-129.0,-208.0,-123.0,0.0,0.0,0.0,0.0,0.0,0.0,0.0,0.0,2
108.0,58.0,-73.0,-98.0,-80.0,-115.0,-168.0,-87.0,0.0,0.0,0.0,0.0,0.0,0.0,0.0,0.0,2
85.0,38.0,-89.0,-103.0,-77.0,-93.0,-102.0,-55.0,0.0,0.0,0.0,0.0,0.0,0.0,0.0,0.0,2
-3.0,103.0,-116.0,-130.0,-97.0,-87.0,-65.0,-48.0,0.0,0.0,0.0,0.0,0.0,0.0,0.0,0.0,2
-95.0,137.0,-93.0,-134.0,-97.0,-76.0,-58.0,-43.0,0.0,0.0,0.0,0.0,0.0,0.0,0.0,0.0,2
-128.0,76.0,-78.0,-103.0,-74.0,-49.0,-41.0,-31.0,0.0,0.0,0.0,0.0,0.0,0.0,0.0,0.0,2
-91.0,49.0,-72.0,-81.0,-60.0,-27.0,-32.0,-21.0,0.0,0.0,0.0,0.0,0.0,0.0,0.0,0.0,2
-67.0,-27.0,-92.0,-61.0,-52.0,-18.0,-24.0,-24.0,0.0,0.0,0.0,0.0,0.0,0.0,0.0,0.0,2
-50.0,-112.0,-115.0,-47.0,-49.0,-12.0,-16.0,-32.0,0.0,0.0,0.0,0.0,0.0,0.0,0.0,0.0,2
-18.0,-120.0,-104.0,-34.0,-33.0,5.0,-7.0,-28.0,0.0,0.0,0.0,0.0,0.0,0.0,0.0,0.0,2
-12.0,-56.0,-26.0,5.0,1.0,31.0,16.0,-10.0,0.0,0.0,0.0,0.0,0.0,0.0,0.0,0.0,2
-26.0,-25.0,22.0,37.0,32.0,54.0,33.0,11.0,0.0,0.0,0.0,0.0,0.0,0.0,0.0,0.0,2
-39.0,-31.0,26.0,33.0,28.0,62.0,40.0,21.0,0.0,0.0,0.0,0.0,0.0,0.0,0.0,0.0,2
-27.0,-27.0,26.0,18.0,28.0,59.0,38.0,26.0,0.0,0.0,0.0,0.0,0.0,0.0,0.0,0.0,2
-44.0,-41.0,16.0,4.0,30.0,47.0,29.0,28.0,0.0,0.0,0.0,0.0,0.0,0.0,0.0,0.0,2
-61.0,-62.0,28.0,23.0,38.0,46.0,22.0,27.0,0.0,0.0,0.0,0.0,0.0,0.0,0.0,0.0,2
-29.0,-65.0,62.0,62.0,57.0,46.0,9.0,21.0,0.0,0.0,0.0,0.0,0.0,0.0,0.0,0.0,2
-20.0,-99.0,58.0,81.0,64.0,52.0,4.0,27.0,0.0,0.0,0.0,0.0,0.0,0.0,0.0,0.0,2
-50.0,-136.0,46.0,92.0,70.0,51.0,9.0,26.0,0.0,0.0,0.0,0.0,0.0,0.0,0.0,0.0,2
-55.0,-129.0,53.0,106.0,69.0,32.0,1.0,15.0,0.0,0.0,0.0,0.0,0.0,0.0,0.0,0.0,2
-12.0,-104.0,61.0,124.0,64.0,5.0,-16.0,-2.0,0.0,0.0,0.0,0.0,0.0,0.0,0.0,0.0,2
-29.0,-93.0,53.0,107.0,39.0,-11.0,-33.0,-14.0,0.0,0.0,0.0,0.0,0.0,0.0,0.0,0.0,2
-37.0,-52.0,29.0,58.0,7.0,-38.0,-52.0,-34.0,0.0,0.0,0.0,0.0,0.0,0.0,0.0,0.0,2
15.0,13.0,21.0,38.0,-9.0,-56.0,-63.0,-52.0,0.0,0.0,0.0,0.0,0.0,0.0,0.0,0.0,2
16.0,-1.0,-29.0,-3.0,-40.0,-60.0,-63.0,-42.0,0.0,0.0,0.0,0.0,0.0,0.0,0.0,0.0,2
-8.0,-19.0,-85.0,-54.0,-64.0,-63.0,-69.0,-47.0,0.0,0.0,0.0,0.0,0.0,0.0,0.0,0.0,2
-20.0,-6.0,-78.0,-64.0,-74.0,-71.0,-63.0,-53.0,0.0,0.0,0.0,0.0,0.0,0.0,0.0,0.0,2
-17.0,2.0,-67.0,-67.0,-83.0,-71.0,-60.0,-56.0,0.0,0.0,0.0,0.0,0.0,0.0,0.0,0.0,2
0.0,-5.0,-96.0,-104.0,-97.0,-68.0,-57.0,-71.0,0.0,0.0,0.0,0.0,0.0,0.0,0.0,0.0,2
7.0,-9.0,-117.0,-149.0,-106.0,-74.0,-61.0,-74.0,0.0,0.0,0.0,0.0,0.0,0.0,0.0,0.0,2
5.0,10.0,-119.0,-156.0,-107.0,-69.0,-67.0,-67.0,0.0,0.0,0.0,0.0,0.0,0.0,0.0,0.0,2
-25.0,23.0,-84.0,-135.0,-96.0,-63.0,-59.0,-58.0,0.0,0.0,0.0,0.0,0.0,0.0,0.0,0.0,2
-52.0,24.0,-38.0,-108.0,-92.0,-54.0,-55.0,-54.0,0.0,0.0,0.0,0.0,0.0,0.0,0.0,0.0,2
-64.0,10.0,-48.0,-103.0,-90.0,-50.0,-57.0,-52.0,0.0,0.0,0.0,0.0,0.0,0.0,0.0,0.0,2
-65.0,24.0,-50.0,-102.0,-79.0,-47.0,-49.0,-35.0,0.0,0.0,0.0,0.0,0.0,0.0,0.0,0.0,2
-57.0,29.0,-8.0,-73.0,-55.0,-32.0,-37.0,-27.0,0.0,0.0,0.0,0.0,0.0,0.0,0.0,0.0,2
-53.0,14.0,0.0,-74.0,-47.0,-34.0,-34.0,-20.0,0.0,0.0,0.0,0.0,0.0,0.0,0.0,0.0,2
-40.0,-41.0,-34.0,-115.0,-56.0,-38.0,-35.0,-25.0,0.0,0.0,0.0,0.0,0.0,0.0,0.0,0.0,2
-79.0,-163.0,-94.0,-166.0,-72.0,-46.0,-41.0,-27.0,0.0,0.0,0.0,0.0,0.0,0.0,0.0,0.0,2
-77.0,-179.0,-115.0,-174.0,-83.0,-57.0,-43.0,-27.0,0.0,0.0,0.0,0.0,0.0,0.0,0.0,0.0,2
7.0,-34.0,-107.0,-171.0,-98.0,-66.0,-50.0,-36.0,0.0,0.0,0.0,0.0,0.0,0.0,0.0,0.0,2
51.0,61.0,-72.0,-125.0,-84.0,-67.0,-50.0,-41.0,0.0,0.0,0.0,0.0,0.0,0.0,0.0,0.0,2
9.0,63.0,-31.0,-44.0,-38.0,-61.0,-42.0,-45.0,0.0,0.0,0.0,0.0,0.0,0.0,0.0,0.0,2
-91.0,-77.0,-67.0,3.0,-22.0,-52.0,-38.0,-63.0,0.0,0.0,0.0,0.0,0.0,0.0,0.0,0.0,2
-126.0,-141.0,-110.0,11.0,-21.0,-52.0,-37.0,-53.0,0.0,0.0,0.0,0.0,0.0,0.0,0.0,0.0,2
-78.0,-94.0,-84.0,42.0,-4.0,-49.0,-32.0,-43.0,0.0,0.0,0.0,0.0,0.0,0.0,0.0,0.0,2
-78.0,-111.0,-56.0,47.0,-7.0,-47.0,-32.0,-47.0,0.0,0.0,0.0,0.0,0.0,0.0,0.0,0.0,2
-76.0,-168.0,-69.0,35.0,-1.0,-39.0,-23.0,-53.0,0.0,0.0,0.0,0.0,0.0,0.0,0.0,0.0,2
-52.0,-185.0,-61.0,36.0,4.0,-24.0,-15.0,-49.0,0.0,0.0,0.0,0.0,0.0,0.0,0.0,0.0,2
-50.0,-94.0,-23.0,45.0,5.0,-18.0,-9.0,-46.0,0.0,0.0,0.0,0.0,0.0,0.0,0.0,0.0,2
-24.0,32.0,19.0,52.0,3.0,-12.0,-2.0,-32.0,0.0,0.0,0.0,0.0,0.0,0.0,0.0,0.0,2
36.0,108.0,39.0,52.0,-5.0,-10.0,6.0,-19.0,0.0,0.0,0.0,0.0,0.0,0.0,0.0,0.0,2
82.0,113.0,37.0,44.0,-8.0,-10.0,13.0,-9.0,0.0,0.0,0.0,0.0,0.0,0.0,0.0,0.0,2
71.0,117.0,39.0,59.0,-3.0,-2.0,12.0,4.0,0.0,0.0,0.0,0.0,0.0,0.0,0.0,0.0,2
8.0,120.0,62.0,91.0,3.0,-5.0,1.0,14.0,0.0,0.0,0.0,0.0,0.0,0.0,0.0,0.0,2
-115.0,28.0,73.0,61.0,-25.0,-31.0,-10.0,8.0,0.0,0.0,0.0,0.0,0.0,0.0,0.0,0.0,2
-117.0,-31.0,21.0,-8.0,-42.0,-34.0,-9.0,4.0,0.0,0.0,0.0,0.0,0.0,0.0,0.0,0.0,2
-2.0,103.0,-26.0,-56.0,-29.0,-21.0,-6.0,12.0,0.0,0.0,0.0,0.0,0.0,0.0,0.0,0.0,2
34.0,193.0,-40.0,-80.0,-27.0,-23.0,-13.0,12.0,0.0,0.0,0.0,0.0,0.0,0.0,0.0,0.0,2
26.0,107.0,-67.0,-89.0,-33.0,-33.0,-25.0,-14.0,0.0,0.0,0.0,0.0,0.0,0.0,0.0,0.0,2
47.0,-11.0,-101.0,-91.0,-40.0,-40.0,-37.0,-34.0,0.0,0.0,0.0,0.0,0.0,0.0,0.0,0.0,2
37.0,-132.0,-130.0,-117.0,-63.0,-58.0,-48.0,-39.0,0.0,0.0,0.0,0.0,0.0,0.0,0.0,0.0,2
0.0,-241.0,-167.0,-140.0,-84.0,-70.0,-60.0,-48.0,0.0,0.0,0.0,0.0,0.0,0.0,0.0,0.0,2
-66.0,-343.0,-187.0,-128.0,-84.0,-80.0,-62.0,-57.0,0.0,0.0,0.0,0.0,0.0,0.0,0.0,0.0,2
-238.0,-514.0,-196.0,-114.0,-71.0,-79.0,-65.0,-51.0,0.0,0.0,0.0,0.0,0.0,0.0,0.0,0.0,2
-287.0,-395.0,-151.0,-61.0,-50.0,-64.0,-52.0,-45.0,0.0,0.0,0.0,0.0,0.0,0.0,0.0,0.0,2
-147.0,10.0,-81.0,-19.0,-25.0,-56.0,-45.0,-44.0,0.0,0.0,0.0,0.0,0.0,0.0,0.0,0.0,2
-103.0,-2.0,-51.0,7.0,-11.0,-51.0,-47.0,-51.0,0.0,0.0,0.0,0.0,0.0,0.0,0.0,0.0,2
-151.0,-183.0,-17.0,49.0,10.0,-31.0,-38.0,-62.0,0.0,0.0,0.0,0.0,0.0,0.0,0.0,0.0,2
-54.0,-86.0,47.0,86.0,20.0,-13.0,-11.0,-47.0,0.0,0.0,0.0,0.0,0.0,0.0,0.0,0.0,2
59.0,64.0,80.0,95.0,37.0,2.0,-3.0,-20.0,0.0,0.0,0.0,0.0,0.0,0.0,0.0,0.0,2
82.0,145.0,102.0,101.0,41.0,8.0,-8.0,-8.0,0.0,0.0,0.0,0.0,0.0,0.0,0.0,0.0,2
69.0,145.0,100.0,89.0,34.0,8.0,-9.0,-2.0,0.0,0.0,0.0,0.0,0.0,0.0,0.0,0.0,2
77.0,126.0,89.0,69.0,35.0,16.0,-7.0,6.0,0.0,0.0,0.0,0.0,0.0,0.0,0.0,0.0,2
54.0,118.0,71.0,41.0,28.0,12.0,-13.0,16.0,0.0,0.0,0.0,0.0,0.0,0.0,0.0,0.0,2
6.0,128.0,66.0,8.0,1.0,5.0,-16.0,10.0,0.0,0.0,0.0,0.0,0.0,0.0,0.0,0.0,2
-3.0,85.0,49.0,-31.0,-20.0,-7.0,-24.0,-8.0,0.0,0.0,0.0,0.0,0.0,0.0,0.0,0.0,2
2.0,-8.0,29.0,-43.0,-31.0,-18.0,-34.0,-18.0,0.0,0.0,0.0,0.0,0.0,0.0,0.0,0.0,2
-42.0,-70.0,20.0,-42.0,-44.0,-32.0,-49.0,-23.0,0.0,0.0,0.0,0.0,0.0,0.0,0.0,0.0,2
-43.0,-68.0,8.0,-57.0,-68.0,-44.0,-62.0,-35.0,0.0,0.0,0.0,0.0,0.0,0.0,0.0,0.0,2
37.0,18.0,-13.0,-82.0,-80.0,-51.0,-61.0,-32.0,0.0,0.0,0.0,0.0,0.0,0.0,0.0,0.0,2
63.0,94.0,-85.0,-130.0,-99.0,-71.0,-63.0,-32.0,0.0,0.0,0.0,0.0,0.0,0.0,0.0,0.0,2
37.0,67.0,-174.0,-156.0,-116.0,-84.0,-76.0,-48.0,0.0,0.0,0.0,0.0,0.0,0.0,0.0,0.0,2
32.0,20.0,-186.0,-158.0,-103.0,-82.0,-78.0,-66.0,0.0,0.0,0.0,0.0,0.0,0.0,0.0,0.0,2
0.0,-31.0,-153.0,-135.0,-78.0,-76.0,-61.0,-49.0,0.0,0.0,0.0,0.0,0.0,0.0,0.0,0.0,2
-20.0,-32.0,-117.0,-109.0,-55.0,-53.0,-47.0,-45.0,0.0,0.0,0.0,0.0,0.0,0.0,0.0,0.0,2
-51.0,-65.0,-106.0,-93.0,-46.0,-44.0,-48.0,-59.0,0.0,0.0,0.0,0.0,0.0,0.0,0.0,0.0,2
-133.0,-201.0,-80.0,-59.0,-35.0,-38.0,-43.0,-79.0,0.0,0.0,0.0,0.0,0.0,0.0,0.0,0.0,2
-147.0,-294.0,-50.0,-35.0,-21.0,-29.0,-35.0,-77.0,0.0,0.0,0.0,0.0,0.0,0.0,0.0,0.0,2
-10.0,-133.0,-44.0,-58.0,-32.0,-18.0,-29.0,-55.0,0.0,0.0,0.0,0.0,0.0,0.0,0.0,0.0,2
53.0,40.0,-57.0,-75.0,-51.0,-8.0,-19.0,-35.0,0.0,0.0,0.0,0.0,0.0,0.0,0.0,0.0,2
38.0,99.0,-50.0,-79.0,-45.0,9.0,-5.0,-14.0,0.0,0.0,0.0,0.0,0.0,0.0,0.0,0.0,2
4.0,80.0,-50.0,-82.0,-37.0,16.0,4.0,-13.0,0.0,0.0,0.0,0.0,0.0,0.0,0.0,0.0,2
-69.0,-43.0,-62.0,-88.0,-45.0,7.0,-7.0,-16.0,0.0,0.0,0.0,0.0,0.0,0.0,0.0,0.0,2
-142.0,-130.0,-55.0,-82.0,-48.0,-12.0,-24.0,-29.0,0.0,0.0,0.0,0.0,0.0,0.0,0.0,0.0,2
-144.0,-163.0,-45.0,-67.0,-32.0,-10.0,-20.0,-24.0,0.0,0.0,0.0,0.0,0.0,0.0,0.0,0.0,2
-141.0,-208.0,-19.0,-49.0,-9.0,-2.0,-18.0,-11.0,0.0,0.0,0.0,0.0,0.0,0.0,0.0,0.0,2
-199.0,-297.0,-31.0,-47.0,-7.0,-16.0,-23.0,-9.0,0.0,0.0,0.0,0.0,0.0,0.0,0.0,0.0,2
-247.0,-302.0,-31.0,-38.0,-12.0,-22.0,-25.0,-6.0,0.0,0.0,0.0,0.0,0.0,0.0,0.0,0.0,2
-217.0,-166.0,-17.0,-21.0,-11.0,-16.0,-25.0,-16.0,0.0,0.0,0.0,0.0,0.0,0.0,0.0,0.0,2
-176.0,-42.0,-6.0,-7.0,-4.0,-18.0,-24.0,-25.0,0.0,0.0,0.0,0.0,0.0,0.0,0.0,0.0,2
-135.0,7.0,-13.0,-2.0,-8.0,-28.0,-27.0,-19.0,0.0,0.0,0.0,0.0,0.0,0.0,0.0,0.0,2
-66.0,37.0,-14.0,5.0,-16.0,-33.0,-27.0,-31.0,0.0,0.0,0.0,0.0,0.0,0.0,0.0,0.0,2
41.0,72.0,-2.0,26.0,-3.0,-44.0,-31.0,-44.0,0.0,0.0,0.0,0.0,0.0,0.0,0.0,0.0,2
52.0,65.0,-1.0,27.0,-7.0,-50.0,-31.0,-36.0,0.0,0.0,0.0,0.0,0.0,0.0,0.0,0.0,2
14.0,9.0,-4.0,25.0,-4.0,-49.0,-30.0,-27.0,0.0,0.0,0.0,0.0,0.0,0.0,0.0,0.0,2
19.0,-3.0,-1.0,28.0,-3.0,-54.0,-19.0,-36.0,0.0,0.0,0.0,0.0,0.0,0.0,0.0,0.0,2
39.0,73.0,8.0,40.0,-6.0,-49.0,-12.0,-37.0,0.0,0.0,0.0,0.0,0.0,0.0,0.0,0.0,2
55.0,135.0,2.0,40.0,-11.0,-46.0,-17.0,-56.0,0.0,0.0,0.0,0.0,0.0,0.0,0.0,0.0,2
38.0,114.0,-52.0,15.0,-13.0,-57.0,-40.0,-82.0,0.0,0.0,0.0,0.0,0.0,0.0,0.0,0.0,2
58.0,112.0,-71.0,-23.0,-24.0,-51.0,-40.0,-77.0,0.0,0.0,0.0,0.0,0.0,0.0,0.0,0.0,2
113.0,117.0,-66.0,-45.0,-33.0,-40.0,-43.0,-67.0,0.0,0.0,0.0,0.0,0.0,0.0,0.0,0.0,2
90.0,60.0,-52.0,-42.0,-28.0,-32.0,-40.0,-56.0,0.0,0.0,0.0,0.0,0.0,0.0,0.0,0.0,2
26.0,-11.0,-36.0,-52.0,-34.0,-23.0,-41.0,-50.0,0.0,0.0,0.0,0.0,0.0,0.0,0.0,0.0,2
-66.0,-79.0,-46.0,-71.0,-51.0,-32.0,-56.0,-52.0,0.0,0.0,0.0,0.0,0.0,0.0,0.0,0.0,2
-121.0,-135.0,-56.0,-82.0,-61.0,-45.0,-57.0,-38.0,0.0,0.0,0.0,0.0,0.0,0.0,0.0,0.0,2
-92.0,-154.0,-50.0,-84.0,-59.0,-44.0,-39.0,-18.0,0.0,0.0,0.0,0.0,0.0,0.0,0.0,0.0,2
-62.0,-89.0,-43.0,-82.0,-52.0,-42.0,-40.0,-20.0,0.0,0.0,0.0,0.0,0.0,0.0,0.0,0.0,2
-93.0,-71.0,-28.0,-66.0,-43.0,-35.0,-43.0,-13.0,0.0,0.0,0.0,0.0,0.0,0.0,0.0,0.0,2
-94.0,-88.0,-17.0,-57.0,-47.0,-46.0,-46.0,-24.0,0.0,0.0,0.0,0.0,0.0,0.0,0.0,0.0,2
-55.0,-108.0,-12.0,-52.0,-52.0,-48.0,-45.0,-35.0,0.0,0.0,0.0,0.0,0.0,0.0,0.0,0.0,2
-38.0,-71.0,6.0,-41.0,-35.0,-54.0,-42.0,-29.0,0.0,0.0,0.0,0.0,0.0,0.0,0.0,0.0,2
-39.0,-24.0,2.0,-39.0,-34.0,-61.0,-42.0,-33.0,0.0,0.0,0.0,0.0,0.0,0.0,0.0,0.0,2
-13.0,-7.0,-12.0,-51.0,-55.0,-68.0,-51.0,-51.0,0.0,0.0,0.0,0.0,0.0,0.0,0.0,0.0,2
4.0,-6.0,-31.0,-56.0,-68.0,-70.0,-62.0,-61.0,0.0,0.0,0.0,0.0,0.0,0.0,0.0,0.0,2
7.0,-6.0,-33.0,-32.0,-52.0,-58.0,-49.0,-63.0,0.0,0.0,0.0,0.0,0.0,0.0,0.0,0.0,2
7.0,24.0,-35.0,-29.0,-50.0,-53.0,-48.0,-51.0,0.0,0.0,0.0,0.0,0.0,0.0,0.0,0.0,2
6.0,32.0,-40.0,-31.0,-60.0,-51.0,-45.0,-40.0,0.0,0.0,0.0,0.0,0.0,0.0,0.0,0.0,2
19.0,17.0,-37.0,-27.0,-56.0,-37.0,-33.0,-38.0,0.0,0.0,0.0,0.0,0.0,0.0,0.0,0.0,2
40.0,17.0,-11.0,-19.0,-42.0,-11.0,-26.0,-39.0,0.0,0.0,0.0,0.0,0.0,0.0,0.0,0.0,2
40.0,-5.0,-14.0,-18.0,-38.0,-10.0,-24.0,-28.0,0.0,0.0,0.0,0.0,0.0,0.0,0.0,0.0,2
8.0,-35.0,-23.0,-21.0,-33.0,-11.0,-21.0,-23.0,0.0,0.0,0.0,0.0,0.0,0.0,0.0,0.0,2
-24.0,-63.0,-31.0,-23.0,-27.0,-11.0,-27.0,-23.0,0.0,0.0,0.0,0.0,0.0,0.0,0.0,0.0,2
-69.0,-98.0,-28.0,-28.0,-34.0,-11.0,-59.0,-35.0,0.0,0.0,0.0,0.0,0.0,0.0,0.0,0.0,2
-135.0,-86.0,-20.0,-33.0,-43.0,-11.0,-48.0,-27.0,0.0,0.0,0.0,0.0,0.0,0.0,0.0,0.0,2
-190.0,-63.0,-11.0,-40.0,-43.0,-12.0,-17.0,-14.0,0.0,0.0,0.0,0.0,0.0,0.0,0.0,0.0,2
-166.0,-44.0,-13.0,-38.0,-42.0,-24.0,-35.0,-15.0,0.0,0.0,0.0,0.0,0.0,0.0,0.0,0.0,2
-81.0,-48.0,-15.0,-31.0,-35.0,-33.0,-46.0,-20.0,0.0,0.0,0.0,0.0,0.0,0.0,0.0,0.0,2
-18.0,-54.0,-20.0,-28.0,-35.0,-42.0,-61.0,-30.0,0.0,0.0,0.0,0.0,0.0,0.0,0.0,0.0,2
-1.0,-74.0,-36.0,-33.0,-29.0,-45.0,-73.0,-35.0,0.0,0.0,0.0,0.0,0.0,0.0,0.0,0.0,2
-6.0,-103.0,-68.0,-35.0,-23.0,-48.0,-72.0,-54.0,0.0,0.0,0.0,0.0,0.0,0.0,0.0,0.0,2
15.0,-89.0,-73.0,-28.0,-16.0,-34.0,-63.0,-50.0,0.0,0.0,0.0,0.0,0.0,0.0,0.0,0.0,2
17.0,-64.0,-64.0,-39.0,-30.0,-42.0,-54.0,-48.0,0.0,0.0,0.0,0.0,0.0,0.0,0.0,0.0,2
25.0,-44.0,-59.0,-37.0,-45.0,-59.0,-68.0,-45.0,0.0,0.0,0.0,0.0,0.0,0.0,0.0,0.0,2
0.0,-38.0,-69.0,-43.0,-45.0,-68.0,-93.0,-47.0,0.0,0.0,0.0,0.0,0.0,0.0,0.0,0.0,2
-38.0,-43.0,-76.0,-45.0,-42.0,-56.0,-85.0,-47.0,0.0,0.0,0.0,0.0,0.0,0.0,0.0,0.0,2
-42.0,-12.0,-76.0,-47.0,-45.0,-40.0,-47.0,-47.0,0.0,0.0,0.0,0.0,0.0,0.0,0.0,0.0,2
-30.0,5.0,-56.0,-34.0,-27.0,-19.0,4.0,-52.0,0.0,0.0,0.0,0.0,0.0,0.0,0.0,0.0,2
-17.0,12.0,-31.0,-22.0,-20.0,-7.0,41.0,-41.0,0.0,0.0,0.0,0.0,0.0,0.0,0.0,0.0,2
6.0,28.0,-18.0,-20.0,-17.0,0.0,35.0,-35.0,0.0,0.0,0.0,0.0,0.0,0.0,0.0,0.0,2
2.0,27.0,-4.0,-16.0,-6.0,7.0,14.0,-25.0,0.0,0.0,0.0,0.0,0.0,0.0,0.0,0.0,2
-16.0,17.0,19.0,0.0,-2.0,10.0,-8.0,-22.0,0.0,0.0,0.0,0.0,0.0,0.0,0.0,0.0,2
-33.0,4.0,36.0,18.0,-2.0,10.0,-11.0,-28.0,0.0,0.0,0.0,0.0,0.0,0.0,0.0,0.0,2
-50.0,-1.0,45.0,30.0,8.0,11.0,-3.0,-19.0,0.0,0.0,0.0,0.0,0.0,0.0,0.0,0.0,2
-75.0,0.0,55.0,49.0,19.0,4.0,-8.0,-6.0,0.0,0.0,0.0,0.0,0.0,0.0,0.0,0.0,2
-80.0,8.0,63.0,60.0,22.0,6.0,-13.0,-11.0,0.0,0.0,0.0,0.0,0.0,0.0,0.0,0.0,2
-57.0,0.0,55.0,60.0,12.0,-5.0,-24.0,-12.0,0.0,0.0,0.0,0.0,0.0,0.0,0.0,0.0,2
-31.0,-14.0,45.0,49.0,1.0,-14.0,-33.0,-12.0,0.0,0.0,0.0,0.0,0.0,0.0,0.0,0.0,2
-26.0,-22.0,33.0,28.0,-10.0,-21.0,-45.0,-27.0,0.0,0.0,0.0,0.0,0.0,0.0,0.0,0.0,2
-19.0,-39.0,3.0,-4.0,-30.0,-33.0,-54.0,-38.0,0.0,0.0,0.0,0.0,0.0,0.0,0.0,0.0,2
3.0,-61.0,-29.0,-34.0,-50.0,-46.0,-57.0,-45.0,0.0,0.0,0.0,0.0,0.0,0.0,0.0,0.0,2
-16.0,-80.0,-52.0,-54.0,-63.0,-53.0,-61.0,-48.0,0.0,0.0,0.0,0.0,0.0,0.0,0.0,0.0,2
-32.0,-63.0,-76.0,-83.0,-74.0,-60.0,-58.0,-52.0,0.0,0.0,0.0,0.0,0.0,0.0,0.0,0.0,2
-7.0,-17.0,-103.0,-112.0,-86.0,-61.0,-52.0,-58.0,0.0,0.0,0.0,0.0,0.0,0.0,0.0,0.0,2
-9.0,-1.0,-121.0,-134.0,-92.0,-64.0,-51.0,-63.0,0.0,0.0,0.0,0.0,0.0,0.0,0.0,0.0,2
-53.0,-36.0,-137.0,-136.0,-100.0,-72.0,-46.0,-72.0,0.0,0.0,0.0,0.0,0.0,0.0,0.0,0.0,2
-65.0,-51.0,-136.0,-140.0,-104.0,-80.0,-41.0,-72.0,0.0,0.0,0.0,0.0,0.0,0.0,0.0,0.0,2
-59.0,-70.0,-115.0,-130.0,-103.0,-79.0,-35.0,-74.0,0.0,0.0,0.0,0.0,0.0,0.0,0.0,0.0,2
-48.0,-88.0,-103.0,-126.0,-114.0,-65.0,-32.0,-78.0,0.0,0.0,0.0,0.0,0.0,0.0,0.0,0.0,2
-44.0,-82.0,-91.0,-115.0,-105.0,-57.0,-27.0,-79.0,0.0,0.0,0.0,0.0,0.0,0.0,0.0,0.0,2
-79.0,-87.0,-77.0,-100.0,-89.0,-47.0,-22.0,-59.0,0.0,0.0,0.0,0.0,0.0,0.0,0.0,0.0,2
-125.0,-95.0,-66.0,-80.0,-63.0,-29.0,-9.0,-45.0,0.0,0.0,0.0,0.0,0.0,0.0,0.0,0.0,2
-118.0,-84.0,-45.0,-52.0,-37.0,-19.0,-15.0,-33.0,0.0,0.0,0.0,0.0,0.0,0.0,0.0,0.0,2
-65.0,-52.0,-37.0,-26.0,-28.0,-19.0,-20.0,-27.0,0.0,0.0,0.0,0.0,0.0,0.0,0.0,0.0,2
-63.0,-33.0,-35.0,-15.0,-17.0,-17.0,-24.0,-4.0,0.0,0.0,0.0,0.0,0.0,0.0,0.0,0.0,2
-81.0,-36.0,-16.0,4.0,-2.0,-16.0,-26.0,6.0,0.0,0.0,0.0,0.0,0.0,0.0,0.0,0.0,2
-56.0,-29.0,11.0,37.0,10.0,-11.0,-19.0,5.0,0.0,0.0,0.0,0.0,0.0,0.0,0.0,0.0,2
-29.0,-12.0,14.0,54.0,15.0,-3.0,-23.0,8.0,0.0,0.0,0.0,0.0,0.0,0.0,0.0,0.0,2
-41.0,33.0,3.0,36.0,12.0,-6.0,-31.0,7.0,0.0,0.0,0.0,0.0,0.0,0.0,0.0,0.0,0
-61.0,50.0,-30.0,11.0,0.0,-21.0,-38.0,-18.0,0.0,0.0,0.0,0.0,0.0,0.0,0.0,0.0,0
-58.0,-7.0,-40.0,-4.0,-16.0,-35.0,-48.0,-29.0,0.0,0.0,0.0,0.0,0.0,0.0,0.0,0.0,0
-9.0,1.0,-32.0,-10.0,-21.0,-41.0,-52.0,-25.0,0.0,0.0,0.0,0.0,0.0,0.0,0.0,0.0,0
57.0,13.0,-34.0,-9.0,-24.0,-37.0,-40.0,-31.0,0.0,0.0,0.0,0.0,0.0,0.0,0.0,0.0,0
76.0,-4.0,-37.0,-1.0,-27.0,-35.0,-41.0,-37.0,0.0,0.0,0.0,0.0,0.0,0.0,0.0,0.0,0
31.0,-15.0,-34.0,-6.0,-44.0,-48.0,-46.0,-33.0,0.0,0.0,0.0,0.0,0.0,0.0,0.0,0.0,0
-19.0,-14.0,-38.0,-13.0,-50.0,-46.0,-40.0,-32.0,0.0,0.0,0.0,0.0,0.0,0.0,0.0,0.0,0
-9.0,-13.0,-27.0,-12.0,-50.0,-39.0,-31.0,-37.0,0.0,0.0,0.0,0.0,0.0,0.0,0.0,0.0,0
-8.0,-28.0,-29.0,-6.0,-49.0,-32.0,-30.0,-37.0,0.0,0.0,0.0,0.0,0.0,0.0,0.0,0.0,0
-33.0,-59.0,-40.0,-17.0,-60.0,-35.0,-27.0,-38.0,0.0,0.0,0.0,0.0,0.0,0.0,0.0,0.0,0
-46.0,-78.0,-57.0,-31.0,-62.0,-31.0,-32.0,-46.0,0.0,0.0,0.0,0.0,0.0,0.0,0.0,0.0,0
-57.0,-55.0,-54.0,-20.0,-53.0,-29.0,-31.0,-45.0,0.0,0.0,0.0,0.0,0.0,0.0,0.0,0.0,0
-43.0,-14.0,-36.0,-16.0,-43.0,-22.0,-19.0,-36.0,0.0,0.0,0.0,0.0,0.0,0.0,0.0,0.0,0
-30.0,-5.0,-43.0,-39.0,-44.0,-23.0,-21.0,-20.0,0.0,0.0,0.0,0.0,0.0,0.0,0.0,0.0,0
-27.0,-20.0,-51.0,-49.0,-35.0,-24.0,-31.0,-20.0,0.0,0.0,0.0,0.0,0.0,0.0,0.0,0.0,0
-42.0,-27.0,-42.0,-51.0,-25.0,-30.0,-38.0,-10.0,0.0,0.0,0.0,0.0,0.0,0.0,0.0,0.0,0
-56.0,-48.0,-31.0,-37.0,-16.0,-23.0,-32.0,-1.0,0.0,0.0,0.0,0.0,0.0,0.0,0.0,0.0,0
-33.0,-69.0,-15.0,-16.0,-4.0,-24.0,-29.0,2.0,0.0,0.0,0.0,0.0,0.0,0.0,0.0,0.0,0
-2.0,-74.0,41.0,14.0,7.0,-23.0,-28.0,-2.0,0.0,0.0,0.0,0.0,0.0,0.0,0.0,0.0,0
-36.0,-109.0,55.0,41.0,20.0,-22.0,-26.0,-2.0,0.0,0.0,0.0,0.0,0.0,0.0,0.0,0.0,0
-54.0,-177.0,-20.0,10.0,7.0,-27.0,-36.0,-5.0,0.0,0.0,0.0,0.0,0.0,0.0,0.0,0.0,0
-18.0,-186.0,-58.0,-3.0,-3.0,-37.0,-34.0,-17.0,0.0,0.0,0.0,0.0,0.0,0.0,0.0,0.0,0
-26.0,-148.0,-41.0,19.0,6.0,-27.0,-25.0,-15.0,0.0,0.0,0.0,0.0,0.0,0.0,0.0,0.0,0
-50.0,-94.0,-33.0,24.0,6.0,-23.0,-27.0,-17.0,0.0,0.0,0.0,0.0,0.0,0.0,0.0,0.0,0
-24.0,-9.0,-30.0,2.0,-18.0,-34.0,-32.0,-28.0,0.0,0.0,0.0,0.0,0.0,0.0,0.0,0.0,0
12.0,80.0,-17.0,-9.0,-40.0,-45.0,-39.0,-35.0,0.0,0.0,0.0,0.0,0.0,0.0,0.0,0.0,0
37.0,122.0,-8.0,-2.0,-47.0,-49.0,-38.0,-35.0,0.0,0.0,0.0,0.0,0.0,0.0,0.0,0.0,0
3.0,127.0,-3.0,-3.0,-47.0,-35.0,-32.0,-32.0,0.0,0.0,0.0,0.0,0.0,0.0,0.0,0.0,0
-61.0,117.0,-16.0,-10.0,-50.0,-25.0,-19.0,-36.0,0.0,0.0,0.0,0.0,0.0,0.0,0.0,0.0,0
-66.0,83.0,-38.0,-32.0,-60.0,-19.0,-13.0,-40.0,0.0,0.0,0.0,0.0,0.0,0.0,0.0,0.0,0
-40.0,3.0,-84.0,-75.0,-80.0,-20.0,-19.0,-43.0,0.0,0.0,0.0,0.0,0.0,0.0,0.0,0.0,0
-24.0,-38.0,-90.0,-82.0,-84.0,-13.0,-16.0,-35.0,0.0,0.0,0.0,0.0,0.0,0.0,0.0,0.0,0
-17.0,-30.0,-67.0,-69.0,-77.0,-20.0,-29.0,-35.0,0.0,0.0,0.0,0.0,0.0,0.0,0.0,0.0,0
11.0,-27.0,-61.0,-72.0,-82.0,-38.0,-46.0,-50.0,0.0,0.0,0.0,0.0,0.0,0.0,0.0,0.0,0
63.0,-9.0,-51.0,-69.0,-74.0,-50.0,-47.0,-46.0,0.0,0.0,0.0,0.0,0.0,0.0,0.0,0.0,0
22.0,-57.0,-40.0,-64.0,-65.0,-58.0,-44.0,-39.0,0.0,0.0,0.0,0.0,0.0,0.0,0.0,0.0,0
-77.0,-122.0,-41.0,-60.0,-54.0,-52.0,-45.0,-32.0,0.0,0.0,0.0,0.0,0.0,0.0,0.0,0.0,0
-130.0,-161.0,-46.0,-66.0,-50.0,-55.0,-45.0,-33.0,0.0,0.0,0.0,0.0,0.0,0.0,0.0,0.0,0
-131.0,-169.0,-36.0,-70.0,-51.0,-52.0,-43.0,-35.0,0.0,0.0,0.0,0.0,0.0,0.0,0.0,0.0,0
-102.0,-139.0,-29.0,-65.0,-38.0,-50.0,-42.0,-23.0,0.0,0.0,0.0,0.0,0.0,0.0,0.0,0.0,0
-73.0,-106.0,-33.0,-74.0,-29.0,-53.0,-45.0,-26.0,0.0,0.0,0.0,0.0,0.0,0.0,0.0,0.0,0
-28.0,-56.0,-49.0,-98.0,-47.0,-59.0,-57.0,-37.0,0.0,0.0,0.0,0.0,0.0,0.0,0.0,0.0,0
-7.0,3.0,-57.0,-112.0,-65.0,-69.0,-61.0,-47.0,0.0,0.0,0.0,0.0,0.0,0.0,0.0,0.0,0
-1.0,-8.0,-51.0,-105.0,-61.0,-57.0,-51.0,-47.0,0.0,0.0,0.0,0.0,0.0,0.0,0.0,0.0,0
0.0,-55.0,-52.0,-92.0,-45.0,-44.0,-45.0,-52.0,0.0,0.0,0.0,0.0,0.0,0.0,0.0,0.0,0
-50.0,-85.0,-64.0,-83.0,-46.0,-29.0,-38.0,-45.0,0.0,0.0,0.0,0.0,0.0,0.0,0.0,0.0,0
-78.0,-88.0,-73.0,-75.0,-39.0,-22.0,-31.0,-41.0,0.0,0.0,0.0,0.0,0.0,0.0,0.0,0.0,0
-73.0,-79.0,-70.0,-57.0,-36.0,-20.0,-38.0,-44.0,0.0,0.0,0.0,0.0,0.0,0.0,0.0,0.0,0
-64.0,-56.0,-63.0,-42.0,-32.0,-20.0,-42.0,-40.0,0.0,0.0,0.0,0.0,0.0,0.0,0.0,0.0,0
-58.0,-31.0,-43.0,-28.0,-22.0,-12.0,-35.0,-47.0,0.0,0.0,0.0,0.0,0.0,0.0,0.0,0.0,0
-40.0,-12.0,-40.0,-21.0,-12.0,2.0,-35.0,-47.0,0.0,0.0,0.0,0.0,0.0,0.0,0.0,0.0,0
5.0,8.0,-46.0,-18.0,-14.0,-2.0,-43.0,-45.0,0.0,0.0,0.0,0.0,0.0,0.0,0.0,0.0,0
34.0,25.0,-39.0,-13.0,-20.0,-8.0,-45.0,-37.0,0.0,0.0,0.0,0.0,0.0,0.0,0.0,0.0,0
15.0,19.0,-41.0,-13.0,-26.0,-19.0,-53.0,-33.0,0.0,0.0,0.0,0.0,0.0,0.0,0.0,0.0,0
-20.0,12.0,-34.0,-12.0,-27.0,-25.0,-47.0,-26.0,0.0,0.0,0.0,0.0,0.0,0.0,0.0,0.0,0
-113.0,-14.0,-27.0,-11.0,-22.0,-31.0,-41.0,-16.0,0.0,0.0,0.0,0.0,0.0,0.0,0.0,0.0,0
-185.0,-38.0,-31.0,-5.0,-17.0,-35.0,-39.0,-13.0,0.0,0.0,0.0,0.0,0.0,0.0,0.0,0.0,0
-138.0,-21.0,-32.0,-11.0,-21.0,-38.0,-41.0,-13.0,0.0,0.0,0.0,0.0,0.0,0.0,0.0,0.0,0
-54.0,-9.0,-24.0,-3.0,-14.0,-33.0,-38.0,-7.0,0.0,0.0,0.0,0.0,0.0,0.0,0.0,0.0,0
-20.0,-7.0,-28.0,-3.0,-14.0,-37.0,-38.0,-23.0,0.0,0.0,0.0,0.0,0.0,0.0,0.0,0.0,0
6.0,-7.0,-19.0,10.0,-8.0,-33.0,-31.0,-27.0,0.0,0.0,0.0,0.0,0.0,0.0,0.0,0.0,0
40.0,-4.0,-6.0,12.0,-9.0,-37.0,-28.0,-29.0,0.0,0.0,0.0,0.0,0.0,0.0,0.0,0.0,0
53.0,-2.0,-6.0,8.0,-17.0,-35.0,-38.0,-31.0,0.0,0.0,0.0,0.0,0.0,0.0,0.0,0.0,0
97.0,8.0,-11.0,8.0,-16.0,-28.0,-41.0,-28.0,0.0,0.0,0.0,0.0,0.0,0.0,0.0,0.0,0
79.0,8.0,-14.0,-6.0,-19.0,-21.0,-39.0,-36.0,0.0,0.0,0.0,0.0,0.0,0.0,0.0,0.0,0
-43.0,-18.0,-39.0,-22.0,-28.0,-17.0,-41.0,-50.0,0.0,0.0,0.0,0.0,0.0,0.0,0.0,0.0,0
-65.0,-28.0,-44.0,-11.0,-25.0,-17.0,-37.0,-58.0,0.0,0.0,0.0,0.0,0.0,0.0,0.0,0.0,0
-8.0,-7.0,-26.0,7.0,-18.0,-17.0,-37.0,-67.0,0.0,0.0,0.0,0.0,0.0,0.0,0.0,0.0,0
22.0,8.0,-18.0,3.0,-27.0,-23.0,-45.0,-70.0,0.0,0.0,0.0,0.0,0.0,0.0,0.0,0.0,0
6.0,2.0,-14.0,-7.0,-35.0,-28.0,-33.0,-66.0,0.0,0.0,0.0,0.0,0.0,0.0,0.0,0.0,0
2.0,6.0,-21.0,-17.0,-44.0,-30.0,-27.0,-62.0,0.0,0.0,0.0,0.0,0.0,0.0,0.0,0.0,0
0.0,12.0,-36.0,-22.0,-43.0,-32.0,-25.0,-44.0,0.0,0.0,0.0,0.0,0.0,0.0,0.0,0.0,0
-33.0,2.0,-34.0,-29.0,-43.0,-43.0,-27.0,-36.0,0.0,0.0,0.0,0.0,0.0,0.0,0.0,0.0,0
-43.0,-19.0,-39.0,-25.0,-41.0,-44.0,-20.0,-30.0,0.0,0.0,0.0,0.0,0.0,0.0,0.0,0.0,0
-32.0,-17.0,-31.0,-10.0,-19.0,-32.0,-9.0,-27.0,0.0,0.0,0.0,0.0,0.0,0.0,0.0,0.0,0
-63.0,-15.0,-27.0,-3.0,-8.0,-38.0,-18.0,-12.0,0.0,0.0,0.0,0.0,0.0,0.0,0.0,0.0,0
-84.0,-17.0,-25.0,-8.0,-10.0,-54.0,-22.0,3.0,0.0,0.0,0.0,0.0,0.0,0.0,0.0,0.0,0
-69.0,-36.0,-34.0,-22.0,-21.0,-62.0,-26.0,-8.0,0.0,0.0,0.0,0.0,0.0,0.0,0.0,0.0,0
-28.0,-51.0,-55.0,-34.0,-33.0,-67.0,-36.0,-19.0,0.0,0.0,0.0,0.0,0.0,0.0,0.0,0.0,0
-36.0,-68.0,-69.0,-49.0,-31.0,-75.0,-50.0,-20.0,0.0,0.0,0.0,0.0,0.0,0.0,0.0,0.0,0
-15.0,-66.0,-62.0,-49.0,-19.0,-61.0,-57.0,-30.0,0.0,0.0,0.0,0.0,0.0,0.0,0.0,0.0,0
18.0,-64.0,-59.0,-56.0,-23.0,-52.0,-49.0,-30.0,0.0,0.0,0.0,0.0,0.0,0.0,0.0,0.0,0
-37.0,-91.0,-72.0,-74.0,-43.0,-67.0,-37.0,-31.0,0.0,0.0,0.0,0.0,0.0,0.0,0.0,0.0,0
-98.0,-96.0,-50.0,-61.0,-51.0,-53.0,-21.0,-25.0,0.0,0.0,0.0,0.0,0.0,0.0,0.0,0.0,0
-62.0,-67.0,-20.0,-39.0,-35.0,-12.0,12.0,-3.0,0.0,0.0,0.0,0.0,0.0,0.0,0.0,0.0,0
-56.0,-59.0,-11.0,-30.0,-24.0,6.0,39.0,16.0,0.0,0.0,0.0,0.0,0.0,0.0,0.0,0.0,0
