CH1,CH2,CH3,CH4,CH5,CH6,CH7,CH8,CH9,CH10,CH11,CH12,CH13,CH14,CH15,CH16,label
-2484.0,-8355.0,-5535.0,-550.0,1003.0,-2716.0,97.0,3855.0,0.0,0.0,0.0,0.0,0.0,0.0,0.0,0.0,0
-1690.0,-5573.0,-3687.0,-383.0,647.0,-1805.0,61.0,2552.0,0.0,0.0,0.0,0.0,0.0,0.0,0.0,0.0,0
-1003.0,-3226.0,-2132.0,-236.0,357.0,-1058.0,30.0,1481.0,0.0,0.0,0.0,0.0,0.0,0.0,0.0,0.0,0
-499.0,-1365.0,-907.0,-137.0,110.0,-454.0,8.0,619.0,0.0,0.0,0.0,0.0,0.0,0.0,0.0,0.0,0
-102.0,80.0,64.0,-34.0,-57.0,15.0,-10.0,-66.0,0.0,0.0,0.0,0.0,0.0,0.0,0.0,0.0,0
239.0,1205.0,820.0,67.0,-175.0,376.0,-32.0,-592.0,0.0,0.0,0.0,0.0,0.0,0.0,0.0,0.0,0
500.0,2043.0,1354.0,122.0,-267.0,651.0,-43.0,-972.0,0.0,0.0,0.0,0.0,0.0,0.0,0.0,0.0,0
709.0,2613.0,1713.0,151.0,-347.0,826.0,-49.0,-1230.0,0.0,0.0,0.0,0.0,0.0,0.0,0.0,0.0,0
876.0,2988.0,1966.0,190.0,-376.0,941.0,-53.0,-1389.0,0.0,0.0,0.0,0.0,0.0,0.0,0.0,0.0,0
967.0,3174.0,2082.0,208.0,-385.0,1008.0,-59.0,-1475.0,0.0,0.0,0.0,0.0,0.0,0.0,0.0,0.0,0
1013.0,3188.0,2096.0,216.0,-390.0,1020.0,-59.0,-1511.0,0.0,0.0,0.0,0.0,0.0,0.0,0.0,0.0,0
1048.0,3116.0,2068.0,215.0,-376.0,1002.0,-66.0,-1486.0,0.0,0.0,0.0,0.0,0.0,0.0,0.0,0.0,0
1039.0,2968.0,1980.0,216.0,-349.0,963.0,-69.0,-1425.0,0.0,0.0,0.0,0.0,0.0,0.0,0.0,0.0,0
1006.0,2787.0,1848.0,213.0,-322.0,900.0,-78.0,-1344.0,0.0,0.0,0.0,0.0,0.0,0.0,0.0,0.0,0
946.0,2565.0,1700.0,188.0,-298.0,821.0,-75.0,-1231.0,0.0,0.0,0.0,0.0,0.0,0.0,0.0,0.0,0
863.0,2304.0,1527.0,170.0,-263.0,729.0,-69.0,-1107.0,0.0,0.0,0.0,0.0,0.0,0.0,0.0,0.0,0
737.0,2018.0,1333.0,153.0,-232.0,637.0,-60.0,-969.0,0.0,0.0,0.0,0.0,0.0,0.0,0.0,0.0,0
605.0,1727.0,1115.0,118.0,-203.0,534.0,-61.0,-823.0,0.0,0.0,0.0,0.0,0.0,0.0,0.0,0.0,0
448.0,1403.0,894.0,69.0,-185.0,416.0,-62.0,-674.0,0.0,0.0,0.0,0.0,0.0,0.0,0.0,0.0,0
295.0,1078.0,649.0,15.0,-168.0,293.0,-61.0,-524.0,0.0,0.0,0.0,0.0,0.0,0.0,0.0,0.0,0
131.0,721.0,401.0,-21.0,-144.0,170.0,-55.0,-351.0,0.0,0.0,0.0,0.0,0.0,0.0,0.0,0.0,0
-30.0,326.0,172.0,-32.0,-108.0,59.0,-41.0,-172.0,0.0,0.0,0.0,0.0,0.0,0.0,0.0,0.0,0
-166.0,-69.0,-57.0,-44.0,-62.0,-44.0,-35.0,1.0,0.0,0.0,0.0,0.0,0.0,0.0,0.0,0.0,0
-300.0,-452.0,-301.0,-90.0,-26.0,-164.0,-30.0,151.0,0.0,0.0,0.0,0.0,0.0,0.0,0.0,0.0,0
-432.0,-814.0,-531.0,-123.0,8.0,-282.0,-31.0,306.0,0.0,0.0,0.0,0.0,0.0,0.0,0.0,0.0,0
-530.0,-1127.0,-740.0,-136.0,51.0,-383.0,-20.0,460.0,0.0,0.0,0.0,0.0,0.0,0.0,0.0,0.0,0
-593.0,-1406.0,-914.0,-125.0,102.0,-457.0,-1.0,584.0,0.0,0.0,0.0,0.0,0.0,0.0,0.0,0.0,0
-640.0,-1639.0,-1057.0,-117.0,149.0,-537.0,5.0,695.0,0.0,0.0,0.0,0.0,0.0,0.0,0.0,0.0,0
-678.0,-1827.0,-1180.0,-128.0,172.0,-607.0,-5.0,786.0,0.0,0.0,0.0,0.0,0.0,0.0,0.0,0.0,0
-674.0,-1972.0,-1286.0,-144.0,189.0,-644.0,-14.0,845.0,0.0,0.0,0.0,0.0,0.0,0.0,0.0,0.0,0
-646.0,-2039.0,-1338.0,-158.0,197.0,-673.0,-14.0,868.0,0.0,0.0,0.0,0.0,0.0,0.0,0.0,0.0,0
-592.0,-2045.0,-1342.0,-156.0,203.0,-672.0,-12.0,873.0,0.0,0.0,0.0,0.0,0.0,0.0,0.0,0.0,0
-553.0,-2001.0,-1323.0,-144.0,212.0,-648.0,-6.0,860.0,0.0,0.0,0.0,0.0,0.0,0.0,0.0,0.0,0
-490.0,-1910.0,-1266.0,-128.0,209.0,-613.0,-14.0,805.0,0.0,0.0,0.0,0.0,0.0,0.0,0.0,0.0,0
-431.0,-1773.0,-1182.0,-137.0,193.0,-572.0,-23.0,741.0,0.0,0.0,0.0,0.0,0.0,0.0,0.0,0.0,0
-389.0,-1583.0,-1059.0,-131.0,162.0,-524.0,-17.0,666.0,0.0,0.0,0.0,0.0,0.0,0.0,0.0,0.0,0
-345.0,-1388.0,-940.0,-147.0,123.0,-476.0,-22.0,578.0,0.0,0.0,0.0,0.0,0.0,0.0,0.0,0.0,0
-312.0,-1195.0,-827.0,-153.0,89.0,-409.0,-35.0,489.0,0.0,0.0,0.0,0.0,0.0,0.0,0.0,0.0,0
-308.0,-1001.0,-700.0,-141.0,57.0,-341.0,-32.0,395.0,0.0,0.0,0.0,0.0,0.0,0.0,0.0,0.0,0
-291.0,-804.0,-556.0,-126.0,37.0,-268.0,-33.0,299.0,0.0,0.0,0.0,0.0,0.0,0.0,0.0,0.0,0
-255.0,-607.0,-429.0,-107.0,18.0,-210.0,-34.0,229.0,0.0,0.0,0.0,0.0,0.0,0.0,0.0,0.0,0
-222.0,-444.0,-320.0,-94.0,-1.0,-157.0,-33.0,164.0,0.0,0.0,0.0,0.0,0.0,0.0,0.0,0.0,0
-183.0,-304.0,-201.0,-72.0,-8.0,-107.0,-30.0,111.0,0.0,0.0,0.0,0.0,0.0,0.0,0.0,0.0,0
-197.0,-201.0,-132.0,-60.0,-24.0,-72.0,-30.0,67.0,0.0,0.0,0.0,0.0,0.0,0.0,0.0,0.0,0
-215.0,-142.0,-91.0,-51.0,-33.0,-63.0,-38.0,29.0,0.0,0.0,0.0,0.0,0.0,0.0,0.0,0.0,0
-175.0,-100.0,-65.0,-33.0,-28.0,-47.0,-36.0,-7.0,0.0,0.0,0.0,0.0,0.0,0.0,0.0,0.0,0
-128.0,-37.0,-31.0,-30.0,-23.0,-25.0,-32.0,-23.0,0.0,0.0,0.0,0.0,0.0,0.0,0.0,0.0,0
-74.0,27.0,13.0,-17.0,-28.0,-9.0,-32.0,-35.0,0.0,0.0,0.0,0.0,0.0,0.0,0.0,0.0,0
-35.0,67.0,31.0,-18.0,-27.0,-6.0,-27.0,-47.0,0.0,0.0,0.0,0.0,0.0,0.0,0.0,0.0,0
-17.0,75.0,35.0,-11.0,-30.0,6.0,-25.0,-74.0,0.0,0.0,0.0,0.0,0.0,0.0,0.0,0.0,0
17.0,109.0,71.0,9.0,-26.0,26.0,-35.0,-101.0,0.0,0.0,0.0,0.0,0.0,0.0,0.0,0.0,0
86.0,174.0,111.0,14.0,-30.0,29.0,-40.0,-142.0,0.0,0.0,0.0,0.0,0.0,0.0,0.0,0.0,0
137.0,247.0,146.0,4.0,-53.0,39.0,-34.0,-169.0,0.0,0.0,0.0,0.0,0.0,0.0,0.0,0.0,0
194.0,335.0,189.0,-1.0,-68.0,68.0,-41.0,-207.0,0.0,0.0,0.0,0.0,0.0,0.0,0.0,0.0,0
231.0,435.0,255.0,-3.0,-91.0,96.0,-37.0,-249.0,0.0,0.0,0.0,0.0,0.0,0.0,0.0,0.0,0
243.0,537.0,324.0,5.0,-108.0,122.0,-37.0,-291.0,0.0,0.0,0.0,0.0,0.0,0.0,0.0,0.0,0
276.0,628.0,372.0,8.0,-123.0,152.0,-33.0,-330.0,0.0,0.0,0.0,0.0,0.0,0.0,0.0,0.0,0
287.0,690.0,422.0,-3.0,-143.0,177.0,-34.0,-361.0,0.0,0.0,0.0,0.0,0.0,0.0,0.0,0.0,0
232.0,725.0,459.0,-11.0,-155.0,190.0,-27.0,-379.0,0.0,0.0,0.0,0.0,0.0,0.0,0.0,0.0,0
190.0,740.0,466.0,-6.0,-158.0,206.0,-24.0,-395.0,0.0,0.0,0.0,0.0,0.0,0.0,0.0,0.0,0
179.0,750.0,481.0,14.0,-145.0,213.0,-15.0,-391.0,0.0,0.0,0.0,0.0,0.0,0.0,0.0,0.0,0
149.0,726.0,477.0,22.0,-145.0,207.0,-18.0,-378.0,0.0,0.0,0.0,0.0,0.0,0.0,0.0,0.0,0
127.0,677.0,452.0,19.0,-133.0,196.0,-27.0,-358.0,0.0,0.0,0.0,0.0,0.0,0.0,0.0,0.0,0
91.0,605.0,403.0,21.0,-124.0,171.0,-40.0,-328.0,0.0,0.0,0.0,0.0,0.0,0.0,0.0,0.0,0
34.0,516.0,341.0,18.0,-109.0,143.0,-41.0,-282.0,0.0,0.0,0.0,0.0,0.0,0.0,0.0,0.0,0
-1.0,424.0,280.0,19.0,-85.0,111.0,-60.0,-225.0,0.0,0.0,0.0,0.0,0.0,0.0,0.0,0.0,0
-8.0,312.0,197.0,13.0,-64.0,68.0,-78.0,-178.0,0.0,0.0,0.0,0.0,0.0,0.0,0.0,0.0,0
-15.0,200.0,119.0,4.0,-36.0,40.0,-53.0,-123.0,0.0,0.0,0.0,0.0,0.0,0.0,0.0,0.0,0
-39.0,81.0,40.0,-6.0,-25.0,6.0,-18.0,-73.0,0.0,0.0,0.0,0.0,0.0,0.0,0.0,0.0,0
-53.0,-31.0,-41.0,-13.0,-7.0,-21.0,-7.0,-34.0,0.0,0.0,0.0,0.0,0.0,0.0,0.0,0.0,0
-42.0,-95.0,-68.0,-7.0,9.0,-47.0,-9.0,1.0,0.0,0.0,0.0,0.0,0.0,0.0,0.0,0.0,0
-8.0,-140.0,-98.0,-11.0,17.0,-62.0,-19.0,16.0,0.0,0.0,0.0,0.0,0.0,0.0,0.0,0.0,0
20.0,-168.0,-108.0,-7.0,17.0,-71.0,-13.0,30.0,0.0,0.0,0.0,0.0,0.0,0.0,0.0,0.0,0
46.0,-168.0,-99.0,-8.0,13.0,-70.0,-13.0,41.0,0.0,0.0,0.0,0.0,0.0,0.0,0.0,0.0,0
52.0,-151.0,-85.0,-26.0,6.0,-71.0,-11.0,28.0,0.0,0.0,0.0,0.0,0.0,0.0,0.0,0.0,0
42.0,-133.0,-72.0,-38.0,-10.0,-62.0,-13.0,10.0,0.0,0.0,0.0,0.0,0.0,0.0,0.0,0.0,0
29.0,-112.0,-62.0,-55.0,-30.0,-53.0,-25.0,-20.0,0.0,0.0,0.0,0.0,0.0,0.0,0.0,0.0,0
5.0,-71.0,-42.0,-68.0,-51.0,-41.0,-29.0,-38.0,0.0,0.0,0.0,0.0,0.0,0.0,0.0,0.0,0
-32.0,-30.0,-29.0,-71.0,-64.0,-30.0,-24.0,-52.0,0.0,0.0,0.0,0.0,0.0,0.0,0.0,0.0,0
-48.0,-10.0,-24.0,-57.0,-67.0,-21.0,-27.0,-68.0,0.0,0.0,0.0,0.0,0.0,0.0,0.0,0.0,0
-62.0,-4.0,-4.0,-39.0,-46.0,-6.0,-46.0,-84.0,0.0,0.0,0.0,0.0,0.0,0.0,0.0,0.0,0
-86.0,10.0,-2.0,-39.0,-42.0,-13.0,-79.0,-86.0,0.0,0.0,0.0,0.0,0.0,0.0,0.0,0.0,0
-101.0,-2.0,-14.0,-46.0,-61.0,-29.0,-67.0,-71.0,0.0,0.0,0.0,0.0,0.0,0.0,0.0,0.0,0
-113.0,-29.0,-24.0,-40.0,-52.0,-35.0,-38.0,-35.0,0.0,0.0,0.0,0.0,0.0,0.0,0.0,0.0,0
-141.0,-69.0,-51.0,-51.0,-28.0,-37.0,-5.0,17.0,0.0,0.0,0.0,0.0,0.0,0.0,0.0,0.0,0
-153.0,-124.0,-90.0,-66.0,-22.0,-56.0,17.0,65.0,0.0,0.0,0.0,0.0,0.0,0.0,0.0,0.0,0
-162.0,-191.0,-137.0,-71.0,-27.0,-83.0,38.0,119.0,0.0,0.0,0.0,0.0,0.0,0.0,0.0,0.0,0
-178.0,-258.0,-196.0,-95.0,-33.0,-127.0,24.0,134.0,0.0,0.0,0.0,0.0,0.0,0.0,0.0,0.0,0
-191.0,-313.0,-235.0,-92.0,-22.0,-154.0,-15.0,119.0,0.0,0.0,0.0,0.0,0.0,0.0,0.0,0.0,0
-163.0,-348.0,-254.0,-69.0,0.0,-159.0,-55.0,107.0,0.0,0.0,0.0,0.0,0.0,0.0,0.0,0.0,0
-123.0,-358.0,-253.0,-52.0,22.0,-157.0,-81.0,94.0,0.0,0.0,0.0,0.0,0.0,0.0,0.0,0.0,0
-100.0,-347.0,-247.0,-50.0,31.0,-155.0,-83.0,78.0,0.0,0.0,0.0,0.0,0.0,0.0,0.0,0.0,0
-65.0,-329.0,-231.0,-46.0,25.0,-145.0,-85.0,64.0,0.0,0.0,0.0,0.0,0.0,0.0,0.0,0.0,0
-18.0,-300.0,-206.0,-38.0,17.0,-130.0,-84.0,38.0,0.0,0.0,0.0,0.0,0.0,0.0,0.0,0.0,0
17.0,-234.0,-172.0,-44.0,5.0,-104.0,-79.0,12.0,0.0,0.0,0.0,0.0,0.0,0.0,0.0,0.0,0
39.0,-142.0,-118.0,-46.0,-12.0,-83.0,-74.0,-16.0,0.0,0.0,0.0,0.0,0.0,0.0,0.0,0.0,0
64.0,-55.0,-66.0,-34.0,-20.0,-55.0,-80.0,-46.0,0.0,0.0,0.0,0.0,0.0,0.0,0.0,0.0,0
66.0,18.0,-15.0,-24.0,-39.0,-22.0,-74.0,-67.0,0.0,0.0,0.0,0.0,0.0,0.0,0.0,0.0,0
32.0,81.0,34.0,-19.0,-49.0,6.0,-55.0,-82.0,0.0,0.0,0.0,0.0,0.0,0.0,0.0,0.0,0
27.0,142.0,90.0,14.0,-38.0,32.0,-40.0,-90.0,0.0,0.0,0.0,0.0,0.0,0.0,0.0,0.0,0
29.0,193.0,140.0,33.0,-34.0,48.0,-26.0,-94.0,0.0,0.0,0.0,0.0,0.0,0.0,0.0,0.0,0
14.0,208.0,145.0,14.0,-53.0,56.0,0.0,-91.0,0.0,0.0,0.0,0.0,0.0,0.0,0.0,0.0,0
6.0,200.0,130.0,11.0,-37.0,62.0,9.0,-86.0,0.0,0.0,0.0,0.0,0.0,0.0,0.0,0.0,0
-19.0,187.0,123.0,15.0,-24.0,51.0,11.0,-73.0,0.0,0.0,0.0,0.0,0.0,0.0,0.0,0.0,0
-64.0,145.0,99.0,2.0,-38.0,25.0,1.0,-65.0,0.0,0.0,0.0,0.0,0.0,0.0,0.0,0.0,0
-106.0,77.0,53.0,-12.0,-31.0,2.0,-12.0,-50.0,0.0,0.0,0.0,0.0,0.0,0.0,0.0,0.0,0
-116.0,-3.0,-11.0,-29.0,-31.0,-23.0,-26.0,-35.0,0.0,0.0,0.0,0.0,0.0,0.0,0.0,0.0,0
-126.0,-86.0,-70.0,-56.0,-30.0,-41.0,-32.0,-9.0,0.0,0.0,0.0,0.0,0.0,0.0,0.0,0.0,0
-155.0,-128.0,-103.0,-58.0,-24.0,-54.0,-29.0,8.0,0.0,0.0,0.0,0.0,0.0,0.0,0.0,0.0,0
-128.0,-139.0,-119.0,-54.0,-13.0,-60.0,-30.0,4.0,0.0,0.0,0.0,0.0,0.0,0.0,0.0,0.0,0
-73.0,-151.0,-128.0,-38.0,-1.0,-65.0,-34.0,7.0,0.0,0.0,0.0,0.0,0.0,0.0,0.0,0.0,0
-27.0,-149.0,-123.0,-41.0,-12.0,-66.0,-43.0,0.0,0.0,0.0,0.0,0.0,0.0,0.0,0.0,0.0,0
9.0,-156.0,-123.0,-64.0,-21.0,-79.0,-52.0,-11.0,0.0,0.0,0.0,0.0,0.0,0.0,0.0,0.0,0
36.0,-137.0,-112.0,-62.0,-35.0,-65.0,-44.0,-8.0,0.0,0.0,0.0,0.0,0.0,0.0,0.0,0.0,0
67.0,-104.0,-84.0,-55.0,-38.0,-48.0,-40.0,-16.0,0.0,0.0,0.0,0.0,0.0,0.0,0.0,0.0,0
28.0,-104.0,-70.0,-72.0,-59.0,-34.0,-29.0,-36.0,0.0,0.0,0.0,0.0,0.0,0.0,0.0,0.0,0
6.0,-79.0,-56.0,-79.0,-80.0,-22.0,-35.0,-62.0,0.0,0.0,0.0,0.0,0.0,0.0,0.0,0.0,0
41.0,26.0,6.0,-50.0,-74.0,-10.0,-41.0,-85.0,0.0,0.0,0.0,0.0,0.0,0.0,0.0,0.0,0
24.0,100.0,52.0,-45.0,-72.0,6.0,-35.0,-99.0,0.0,0.0,0.0,0.0,0.0,0.0,0.0,0.0,0
19.0,155.0,79.0,-47.0,-75.0,29.0,-27.0,-102.0,0.0,0.0,0.0,0.0,0.0,0.0,0.0,0.0,0
22.0,172.0,89.0,-35.0,-78.0,34.0,-33.0,-110.0,0.0,0.0,0.0,0.0,0.0,0.0,0.0,0.0,0
-6.0,125.0,89.0,-35.0,-84.0,35.0,-34.0,-115.0,0.0,0.0,0.0,0.0,0.0,0.0,0.0,0.0,0
-36.0,94.0,90.0,-27.0,-87.0,35.0,-31.0,-109.0,0.0,0.0,0.0,0.0,0.0,0.0,0.0,0.0,0
-72.0,76.0,74.0,-22.0,-82.0,34.0,-25.0,-93.0,0.0,0.0,0.0,0.0,0.0,0.0,0.0,0.0,0
-111.0,36.0,46.0,-19.0,-58.0,21.0,-26.0,-78.0,0.0,0.0,0.0,0.0,0.0,0.0,0.0,0.0,0
-96.0,15.0,26.0,7.0,-29.0,4.0,-24.0,-52.0,0.0,0.0,0.0,0.0,0.0,0.0,0.0,0.0,0
-78.0,-32.0,-10.0,16.0,-15.0,0.0,-20.0,-27.0,0.0,0.0,0.0,0.0,0.0,0.0,0.0,0.0,0
-75.0,-79.0,-45.0,13.0,-3.0,-12.0,-11.0,2.0,0.0,0.0,0.0,0.0,0.0,0.0,0.0,0.0,0
-92.0,-133.0,-88.0,13.0,2.0,-33.0,-11.0,17.0,0.0,0.0,0.0,0.0,0.0,0.0,0.0,0.0,0
-77.0,-170.0,-103.0,17.0,13.0,-49.0,-16.0,32.0,0.0,0.0,0.0,0.0,0.0,0.0,0.0,0.0,0
-43.0,-187.0,-141.0,-3.0,12.0,-56.0,-16.0,39.0,0.0,0.0,0.0,0.0,0.0,0.0,0.0,0.0,0
-25.0,-192.0,-152.0,-4.0,9.0,-64.0,-23.0,35.0,0.0,0.0,0.0,0.0,0.0,0.0,0.0,0.0,0
8.0,-174.0,-134.0,-9.0,6.0,-60.0,-23.0,38.0,0.0,0.0,0.0,0.0,0.0,0.0,0.0,0.0,0
36.0,-142.0,-109.0,-14.0,-2.0,-56.0,-25.0,25.0,0.0,0.0,0.0,0.0,0.0,0.0,0.0,0.0,0
48.0,-118.0,-88.0,-23.0,-13.0,-49.0,-37.0,2.0,0.0,0.0,0.0,0.0,0.0,0.0,0.0,0.0,0
41.0,-93.0,-82.0,-34.0,-28.0,-36.0,-43.0,-16.0,0.0,0.0,0.0,0.0,0.0,0.0,0.0,0.0,0
55.0,-42.0,-49.0,-19.0,-28.0,-18.0,-36.0,-41.0,0.0,0.0,0.0,0.0,0.0,0.0,0.0,0.0,0
64.0,30.0,-2.0,-9.0,-16.0,0.0,-26.0,-54.0,0.0,0.0,0.0,0.0,0.0,0.0,0.0,0.0,0
43.0,92.0,28.0,-11.0,-39.0,6.0,-31.0,-69.0,0.0,0.0,0.0,0.0,0.0,0.0,0.0,0.0,0
32.0,143.0,43.0,-31.0,-63.0,0.0,-38.0,-85.0,0.0,0.0,0.0,0.0,0.0,0.0,0.0,0.0,0
30.0,172.0,66.0,-35.0,-70.0,4.0,-39.0,-89.0,0.0,0.0,0.0,0.0,0.0,0.0,0.0,0.0,0
-13.0,169.0,70.0,-46.0,-86.0,6.0,-48.0,-101.0,0.0,0.0,0.0,0.0,0.0,0.0,0.0,0.0,0
-60.0,111.0,48.0,-66.0,-88.0,-2.0,-54.0,-102.0,0.0,0.0,0.0,0.0,0.0,0.0,0.0,0.0,0
-101.0,35.0,32.0,-74.0,-83.0,-8.0,-49.0,-87.0,0.0,0.0,0.0,0.0,0.0,0.0,0.0,0.0,0
-146.0,-34.0,-2.0,-81.0,-80.0,-22.0,-43.0,-71.0,0.0,0.0,0.0,0.0,0.0,0.0,0.0,0.0,0
-171.0,-96.0,-56.0,-100.0,-81.0,-40.0,-41.0,-47.0,0.0,0.0,0.0,0.0,0.0,0.0,0.0,0.0,0
-176.0,-154.0,-124.0,-112.0,-76.0,-59.0,-37.0,-23.0,0.0,0.0,0.0,0.0,0.0,0.0,0.0,0.0,0
-151.0,-164.0,-138.0,-108.0,-70.0,-69.0,-42.0,-8.0,0.0,0.0,0.0,0.0,0.0,0.0,0.0,0.0,0
-124.0,-180.0,-158.0,-102.0,-59.0,-78.0,-35.0,10.0,0.0,0.0,0.0,0.0,0.0,0.0,0.0,0.0,0
-95.0,-216.0,-169.0,-87.0,-54.0,-87.0,-32.0,32.0,0.0,0.0,0.0,0.0,0.0,0.0,0.0,0.0,0
-48.0,-223.0,-156.0,-65.0,-33.0,-97.0,-37.0,40.0,0.0,0.0,0.0,0.0,0.0,0.0,0.0,0.0,0
-20.0,-211.0,-133.0,-48.0,-23.0,-95.0,-30.0,38.0,0.0,0.0,0.0,0.0,0.0,0.0,0.0,0.0,0
-5.0,-175.0,-124.0,-44.0,-13.0,-88.0,-27.0,22.0,0.0,0.0,0.0,0.0,0.0,0.0,0.0,0.0,0
18.0,-141.0,-109.0,-39.0,-12.0,-79.0,-30.0,9.0,0.0,0.0,0.0,0.0,0.0,0.0,0.0,0.0,0
34.0,-96.0,-79.0,-39.0,-17.0,-66.0,-31.0,-2.0,0.0,0.0,0.0,0.0,0.0,0.0,0.0,0.0,0
39.0,-21.0,-51.0,-27.0,-19.0,-50.0,-30.0,-23.0,0.0,0.0,0.0,0.0,0.0,0.0,0.0,0.0,0
32.0,35.0,-19.0,-27.0,-25.0,-40.0,-27.0,-37.0,0.0,0.0,0.0,0.0,0.0,0.0,0.0,0.0,0
21.0,69.0,10.0,-30.0,-36.0,-30.0,-35.0,-51.0,0.0,0.0,0.0,0.0,0.0,0.0,0.0,0.0,0
3.0,96.0,27.0,-24.0,-45.0,-16.0,-36.0,-75.0,0.0,0.0,0.0,0.0,0.0,0.0,0.0,0.0,0
-8.0,102.0,39.0,-32.0,-54.0,-12.0,-35.0,-86.0,0.0,0.0,0.0,0.0,0.0,0.0,0.0,0.0,0
-4.0,103.0,70.0,-20.0,-44.0,7.0,-34.0,-86.0,0.0,0.0,0.0,0.0,0.0,0.0,0.0,0.0,0
-13.0,116.0,91.0,-8.0,-38.0,13.0,-27.0,-77.0,0.0,0.0,0.0,0.0,0.0,0.0,0.0,0.0,0
-19.0,115.0,96.0,-9.0,-28.0,20.0,-17.0,-69.0,0.0,0.0,0.0,0.0,0.0,0.0,0.0,0.0,0
-57.0,104.0,89.0,-13.0,-23.0,18.0,-16.0,-72.0,0.0,0.0,0.0,0.0,0.0,0.0,0.0,0.0,0
-80.0,67.0,63.0,-27.0,-29.0,-4.0,-26.0,-59.0,0.0,0.0,0.0,0.0,0.0,0.0,0.0,0.0,0
-103.0,3.0,33.0,-24.0,-35.0,-24.0,-20.0,-37.0,0.0,0.0,0.0,0.0,0.0,0.0,0.0,0.0,0
-109.0,-63.0,4.0,-17.0,-18.0,-26.0,-22.0,-26.0,0.0,0.0,0.0,0.0,0.0,0.0,0.0,0.0,0
-123.0,-108.0,-22.0,-5.0,-8.0,-38.0,11.0,-5.0,0.0,0.0,0.0,0.0,0.0,0.0,0.0,0.0,0
-139.0,-160.0,-49.0,4.0,11.0,-41.0,40.0,22.0,0.0,0.0,0.0,0.0,0.0,0.0,0.0,0.0,0
-119.0,-197.0,-79.0,-6.0,5.0,-46.0,29.0,45.0,0.0,0.0,0.0,0.0,0.0,0.0,0.0,0.0,0
-87.0,-196.0,-111.0,-18.0,-9.0,-65.0,7.0,54.0,0.0,0.0,0.0,0.0,0.0,0.0,0.0,0.0,0
-47.0,-156.0,-111.0,-19.0,-17.0,-75.0,-12.0,53.0,0.0,0.0,0.0,0.0,0.0,0.0,0.0,0.0,0
-8.0,-123.0,-107.0,-23.0,-24.0,-85.0,-74.0,36.0,0.0,0.0,0.0,0.0,0.0,0.0,0.0,0.0,0
33.0,-98.0,-99.0,-20.0,-23.0,-84.0,-161.0,7.0,0.0,0.0,0.0,0.0,0.0,0.0,0.0,0.0,0
58.0,-66.0,-79.0,-21.0,-14.0,-69.0,-148.0,-13.0,0.0,0.0,0.0,0.0,0.0,0.0,0.0,0.0,0
66.0,-26.0,-55.0,-26.0,-13.0,-50.0,-94.0,-12.0,0.0,0.0,0.0,0.0,0.0,0.0,0.0,0.0,0
75.0,11.0,-26.0,-28.0,-28.0,-25.0,-44.0,-25.0,0.0,0.0,0.0,0.0,0.0,0.0,0.0,0.0,0
77.0,54.0,2.0,-37.0,-52.0,-8.0,5.0,-48.0,0.0,0.0,0.0,0.0,0.0,0.0,0.0,0.0,0
55.0,104.0,32.0,-42.0,-63.0,-2.0,-2.0,-70.0,0.0,0.0,0.0,0.0,0.0,0.0,0.0,0.0,0
34.0,138.0,47.0,-30.0,-55.0,6.0,-41.0,-87.0,0.0,0.0,0.0,0.0,0.0,0.0,0.0,0.0,0
16.0,142.0,48.0,-32.0,-53.0,11.0,-51.0,-88.0,0.0,0.0,0.0,0.0,0.0,0.0,0.0,0.0,0
5.0,125.0,43.0,-48.0,-63.0,7.0,-45.0,-83.0,0.0,0.0,0.0,0.0,0.0,0.0,0.0,0.0,0
0.0,54.0,27.0,-46.0,-59.0,11.0,-38.0,-86.0,0.0,0.0,0.0,0.0,0.0,0.0,0.0,0.0,0
-17.0,-3.0,7.0,-40.0,-51.0,8.0,-47.0,-85.0,0.0,0.0,0.0,0.0,0.0,0.0,0.0,0.0,0
-54.0,-10.0,3.0,-47.0,-57.0,-7.0,-57.0,-81.0,0.0,0.0,0.0,0.0,0.0,0.0,0.0,0.0,0
-82.0,-14.0,-21.0,-53.0,-54.0,-21.0,-45.0,-57.0,0.0,0.0,0.0,0.0,0.0,0.0,0.0,0.0,0
-92.0,-45.0,-51.0,-51.0,-54.0,-29.0,-32.0,-30.0,0.0,0.0,0.0,0.0,0.0,0.0,0.0,0.0,0
-110.0,-86.0,-68.0,-50.0,-42.0,-32.0,-14.0,3.0,0.0,0.0,0.0,0.0,0.0,0.0,0.0,0.0,0
-135.0,-113.0,-80.0,-39.0,-28.0,-34.0,12.0,27.0,0.0,0.0,0.0,0.0,0.0,0.0,0.0,0.0,0
-134.0,-136.0,-98.0,-22.0,-17.0,-37.0,32.0,47.0,0.0,0.0,0.0,0.0,0.0,0.0,0.0,0.0,0
-115.0,-155.0,-109.0,-18.0,-9.0,-44.0,28.0,58.0,0.0,0.0,0.0,0.0,0.0,0.0,0.0,0.0,0
-82.0,-145.0,-104.0,-5.0,-6.0,-46.0,17.0,58.0,0.0,0.0,0.0,0.0,0.0,0.0,0.0,0.0,0
-51.0,-142.0,-105.0,-5.0,-6.0,-58.0,-5.0,44.0,0.0,0.0,0.0,0.0,0.0,0.0,0.0,0.0,0
-17.0,-123.0,-91.0,-2.0,-3.0,-57.0,-35.0,13.0,0.0,0.0,0.0,0.0,0.0,0.0,0.0,0.0,0
22.0,-82.0,-74.0,-8.0,-3.0,-49.0,-45.0,-26.0,0.0,0.0,0.0,0.0,0.0,0.0,0.0,0.0,0
12.0,-52.0,-49.0,-7.0,-18.0,-32.0,-39.0,-45.0,0.0,0.0,0.0,0.0,0.0,0.0,0.0,0.0,0
-6.0,-42.0,-34.0,-9.0,-29.0,-17.0,-34.0,-57.0,0.0,0.0,0.0,0.0,0.0,0.0,0.0,0.0,0
17.0,6.0,-12.0,-10.0,-28.0,-16.0,-22.0,-69.0,0.0,0.0,0.0,0.0,0.0,0.0,0.0,0.0,0
18.0,56.0,9.0,-15.0,-24.0,-3.0,-14.0,-69.0,0.0,0.0,0.0,0.0,0.0,0.0,0.0,0.0,0
14.0,79.0,36.0,-13.0,-30.0,4.0,-12.0,-63.0,0.0,0.0,0.0,0.0,0.0,0.0,0.0,0.0,0
-10.0,90.0,53.0,-5.0,-30.0,0.0,-29.0,-60.0,0.0,0.0,0.0,0.0,0.0,0.0,0.0,0.0,0
-30.0,75.0,56.0,-22.0,-43.0,-11.0,-44.0,-61.0,0.0,0.0,0.0,0.0,0.0,0.0,0.0,0.0,0
-31.0,50.0,42.0,-36.0,-47.0,-16.0,-76.0,-75.0,0.0,0.0,0.0,0.0,0.0,0.0,0.0,0.0,0
-48.0,24.0,15.0,-50.0,-41.0,-26.0,-73.0,-81.0,0.0,0.0,0.0,0.0,0.0,0.0,0.0,0.0,0
-73.0,-13.0,-9.0,-56.0,-33.0,-26.0,-50.0,-65.0,0.0,0.0,0.0,0.0,0.0,0.0,0.0,0.0,0
-98.0,-41.0,-21.0,-63.0,-35.0,-30.0,-40.0,-52.0,0.0,0.0,0.0,0.0,0.0,0.0,0.0,0.0,0
-115.0,-63.0,-49.0,-61.0,-44.0,-48.0,-41.0,-42.0,0.0,0.0,0.0,0.0,0.0,0.0,0.0,0.0,0
-98.0,-83.0,-66.0,-60.0,-48.0,-65.0,-45.0,-38.0,0.0,0.0,0.0,0.0,0.0,0.0,0.0,0.0,0
-84.0,-116.0,-86.0,-66.0,-53.0,-75.0,-49.0,-27.0,0.0,0.0,0.0,0.0,0.0,0.0,0.0,0.0,0
-75.0,-125.0,-92.0,-49.0,-40.0,-80.0,-44.0,-8.0,0.0,0.0,0.0,0.0,0.0,0.0,0.0,0.0,0
-87.0,-137.0,-114.0,-48.0,-27.0,-76.0,-42.0,-3.0,0.0,0.0,0.0,0.0,0.0,0.0,0.0,0.0,0
-59.0,-126.0,-112.0,-38.0,-26.0,-75.0,-40.0,-6.0,0.0,0.0,0.0,0.0,0.0,0.0,0.0,0.0,0
10.0,-94.0,-96.0,-23.0,-20.0,-75.0,-36.0,1.0,0.0,0.0,0.0,0.0,0.0,0.0,0.0,0.0,0
46.0,-79.0,-84.0,-19.0,-14.0,-73.0,-33.0,-5.0,0.0,0.0,0.0,0.0,0.0,0.0,0.0,0.0,0
49.0,-68.0,-70.0,-26.0,-17.0,-63.0,-31.0,-15.0,0.0,0.0,0.0,0.0,0.0,0.0,0.0,0.0,0
31.0,-53.0,-50.0,-28.0,-20.0,-48.0,-24.0,-22.0,0.0,0.0,0.0,0.0,0.0,0.0,0.0,0.0,0
25.0,-46.0,-40.0,-29.0,-22.0,-33.0,-35.0,-43.0,0.0,0.0,0.0,0.0,0.0,0.0,0.0,0.0,0
19.0,-33.0,-30.0,-31.0,-29.0,-18.0,-31.0,-50.0,0.0,0.0,0.0,0.0,0.0,0.0,0.0,0.0,0
6.0,3.0,2.0,-18.0,-31.0,-1.0,-19.0,-51.0,0.0,0.0,0.0,0.0,0.0,0.0,0.0,0.0,0
5.0,51.0,29.0,-4.0,-23.0,11.0,-13.0,-59.0,0.0,0.0,0.0,0.0,0.0,0.0,0.0,0.0,0
-12.0,70.0,36.0,-25.0,-31.0,17.0,-12.0,-64.0,0.0,0.0,0.0,0.0,0.0,0.0,0.0,0.0,0
-28.0,63.0,23.0,-48.0,-35.0,19.0,-15.0,-59.0,0.0,0.0,0.0,0.0,0.0,0.0,0.0,0.0,0
-45.0,44.0,25.0,-51.0,-37.0,22.0,-12.0,-57.0,0.0,0.0,0.0,0.0,0.0,0.0,0.0,0.0,0
-48.0,38.0,13.0,-62.0,-39.0,13.0,-16.0,-54.0,0.0,0.0,0.0,0.0,0.0,0.0,0.0,0.0,0
-62.0,26.0,-7.0,-68.0,-43.0,-3.0,-26.0,-49.0,0.0,0.0,0.0,0.0,0.0,0.0,0.0,0.0,0
-61.0,6.0,-30.0,-80.0,-48.0,-8.0,-23.0,-37.0,0.0,0.0,0.0,0.0,0.0,0.0,0.0,0.0,0
-57.0,-20.0,-55.0,-85.0,-54.0,-29.0,-26.0,-19.0,0.0,0.0,0.0,0.0,0.0,0.0,0.0,0.0,0
-65.0,-45.0,-74.0,-75.0,-44.0,-46.0,-23.0,-5.0,0.0,0.0,0.0,0.0,0.0,0.0,0.0,0.0,0
-70.0,-72.0,-81.0,-53.0,-30.0,-43.0,-18.0,3.0,0.0,0.0,0.0,0.0,0.0,0.0,0.0,0.0,0
-68.0,-95.0,-80.0,-23.0,-3.0,-46.0,-28.0,1.0,0.0,0.0,0.0,0.0,0.0,0.0,0.0,0.0,0
-53.0,-98.0,-70.0,0.0,16.0,-50.0,-20.0,15.0,0.0,0.0,0.0,0.0,0.0,0.0,0.0,0.0,0
-29.0,-86.0,-59.0,27.0,16.0,-61.0,-21.0,21.0,0.0,0.0,0.0,0.0,0.0,0.0,0.0,0.0,0
-8.0,-85.0,-48.0,34.0,13.0,-50.0,-23.0,9.0,0.0,0.0,0.0,0.0,0.0,0.0,0.0,0.0,0
9.0,-81.0,-42.0,38.0,5.0,-49.0,-22.0,-11.0,0.0,0.0,0.0,0.0,0.0,0.0,0.0,0.0,0
33.0,-74.0,-42.0,25.0,-1.0,-40.0,-31.0,-25.0,0.0,0.0,0.0,0.0,0.0,0.0,0.0,0.0,0
20.0,-61.0,-47.0,3.0,-15.0,-37.0,-30.0,-37.0,0.0,0.0,0.0,0.0,0.0,0.0,0.0,0.0,0
6.0,-34.0,-39.0,-12.0,-30.0,-35.0,-28.0,-53.0,0.0,0.0,0.0,0.0,0.0,0.0,0.0,0.0,0
10.0,3.0,-31.0,-34.0,-53.0,-42.0,-35.0,-63.0,0.0,0.0,0.0,0.0,0.0,0.0,0.0,0.0,0
-12.0,20.0,-26.0,-67.0,-77.0,-41.0,-36.0,-70.0,0.0,0.0,0.0,0.0,0.0,0.0,0.0,0.0,0
-40.0,16.0,-23.0,-75.0,-75.0,-25.0,-31.0,-72.0,0.0,0.0,0.0,0.0,0.0,0.0,0.0,0.0,0
-64.0,6.0,-24.0,-82.0,-78.0,-24.0,-34.0,-82.0,0.0,0.0,0.0,0.0,0.0,0.0,0.0,0.0,0
-59.0,9.0,-24.0,-92.0,-82.0,-24.0,-40.0,-85.0,0.0,0.0,0.0,0.0,0.0,0.0,0.0,0.0,0
-25.0,28.0,-6.0,-83.0,-71.0,-18.0,-28.0,-77.0,0.0,0.0,0.0,0.0,0.0,0.0,0.0,0.0,0
-49.0,13.0,-10.0,-86.0,-61.0,-19.0,-31.0,-78.0,0.0,0.0,0.0,0.0,0.0,0.0,0.0,0.0,0
-80.0,-1.0,-23.0,-84.0,-51.0,-26.0,-25.0,-68.0,0.0,0.0,0.0,0.0,0.0,0.0,0.0,0.0,0
-43.0,25.0,-21.0,-76.0,-43.0,-28.0,-24.0,-39.0,0.0,0.0,0.0,0.0,0.0,0.0,0.0,0.0,0
-9.0,22.0,-42.0,-63.0,-35.0,-35.0,-23.0,-27.0,0.0,0.0,0.0,0.0,0.0,0.0,0.0,0.0,0
-12.0,-23.0,-72.0,-65.0,-31.0,-47.0,-23.0,-23.0,0.0,0.0,0.0,0.0,0.0,0.0,0.0,0.0,0
-39.0,-74.0,-87.0,-56.0,-24.0,-59.0,-27.0,-4.0,0.0,0.0,0.0,0.0,0.0,0.0,0.0,0.0,0
-36.0,-104.0,-84.0,-34.0,-14.0,-62.0,-21.0,5.0,0.0,0.0,0.0,0.0,0.0,0.0,0.0,0.0,0
-34.0,-117.0,-76.0,-4.0,-6.0,-60.0,-12.0,14.0,0.0,0.0,0.0,0.0,0.0,0.0,0.0,0.0,0
-44.0,-143.0,-81.0,17.0,1.0,-56.0,-16.0,19.0,0.0,0.0,0.0,0.0,0.0,0.0,0.0,0.0,0
-71.0,-171.0,-65.0,30.0,-2.0,-55.0,-25.0,13.0,0.0,0.0,0.0,0.0,0.0,0.0,0.0,0.0,0
-82.0,-160.0,-68.0,2.0,-21.0,-52.0,-29.0,-3.0,0.0,0.0,0.0,0.0,0.0,0.0,0.0,0.0,0
-56.0,-146.0,-88.0,-16.0,-36.0,-52.0,-32.0,-21.0,0.0,0.0,0.0,0.0,0.0,0.0,0.0,0.0,0
-31.0,-107.0,-58.0,-9.0,-34.0,-51.0,-38.0,-38.0,0.0,0.0,0.0,0.0,0.0,0.0,0.0,0.0,0
-8.0,-50.0,-27.0,-8.0,-43.0,-41.0,-38.0,-50.0,0.0,0.0,0.0,0.0,0.0,0.0,0.0,0.0,0
17.0,-8.0,-1.0,-10.0,-43.0,-27.0,-34.0,-48.0,0.0,0.0,0.0,0.0,0.0,0.0,0.0,0.0,0
13.0,20.0,13.0,-14.0,-44.0,-16.0,-27.0,-50.0,0.0,0.0,0.0,0.0,0.0,0.0,0.0,0.0,0
7.0,43.0,30.0,-22.0,-53.0,-16.0,-33.0,-54.0,0.0,0.0,0.0,0.0,0.0,0.0,0.0,0.0,0
19.0,58.0,40.0,-37.0,-65.0,-4.0,-32.0,-72.0,0.0,0.0,0.0,0.0,0.0,0.0,0.0,0.0,0
16.0,59.0,31.0,-45.0,-61.0,-9.0,-41.0,-83.0,0.0,0.0,0.0,0.0,0.0,0.0,0.0,0.0,0
3.0,52.0,29.0,-42.0,-62.0,-12.0,-44.0,-66.0,0.0,0.0,0.0,0.0,0.0,0.0,0.0,0.0,0
-4.0,44.0,22.0,-40.0,-53.0,-6.0,-33.0,-49.0,0.0,0.0,0.0,0.0,0.0,0.0,0.0,0.0,0
-14.0,28.0,15.0,-35.0,-40.0,-3.0,-31.0,-47.0,0.0,0.0,0.0,0.0,0.0,0.0,0.0,0.0,0
-30.0,6.0,1.0,-31.0,-25.0,-8.0,-28.0,-35.0,0.0,0.0,0.0,0.0,0.0,0.0,0.0,0.0,0
-37.0,-15.0,-22.0,-39.0,-18.0,-17.0,-26.0,-23.0,0.0,0.0,0.0,0.0,0.0,0.0,0.0,0.0,0
-61.0,-38.0,-50.0,-41.0,-15.0,-28.0,-34.0,-15.0,0.0,0.0,0.0,0.0,0.0,0.0,0.0,0.0,0
-75.0,-50.0,-67.0,-37.0,-3.0,-45.0,-28.0,-5.0,0.0,0.0,0.0,0.0,0.0,0.0,0.0,0.0,0
-43.0,-42.0,-70.0,-23.0,-5.0,-52.0,-27.0,3.0,0.0,0.0,0.0,0.0,0.0,0.0,0.0,0.0,0
-21.0,-61.0,-87.0,-18.0,0.0,-52.0,-19.0,-1.0,0.0,0.0,0.0,0.0,0.0,0.0,0.0,0.0,0
-16.0,-93.0,-92.0,-19.0,-2.0,-57.0,-28.0,-1.0,0.0,0.0,0.0,0.0,0.0,0.0,0.0,0.0,0
-6.0,-113.0,-84.0,-23.0,-16.0,-64.0,-28.0,-3.0,0.0,0.0,0.0,0.0,0.0,0.0,0.0,0.0,0
7.0,-105.0,-72.0,-5.0,-13.0,-61.0,-28.0,-16.0,0.0,0.0,0.0,0.0,0.0,0.0,0.0,0.0,0
13.0,-74.0,-60.0,-4.0,-11.0,-55.0,-33.0,-17.0,0.0,0.0,0.0,0.0,0.0,0.0,0.0,0.0,0
8.0,-41.0,-60.0,-29.0,-31.0,-44.0,-37.0,-26.0,0.0,0.0,0.0,0.0,0.0,0.0,0.0,0.0,0
1.0,1.0,-44.0,-35.0,-53.0,-46.0,-40.0,-38.0,0.0,0.0,0.0,0.0,0.0,0.0,0.0,0.0,0
2.0,27.0,-20.0,-26.0,-63.0,-39.0,-34.0,-39.0,0.0,0.0,0.0,0.0,0.0,0.0,0.0,0.0,0
-15.0,9.0,-11.0,-24.0,-67.0,-25.0,-36.0,-44.0,0.0,0.0,0.0,0.0,0.0,0.0,0.0,0.0,0
-33.0,-11.0,6.0,-17.0,-55.0,-10.0,-38.0,-48.0,0.0,0.0,0.0,0.0,0.0,0.0,0.0,0.0,0
-26.0,7.0,24.0,-1.0,-33.0,3.0,-40.0,-53.0,0.0,0.0,0.0,0.0,0.0,0.0,0.0,0.0,0
-13.0,21.0,36.0,3.0,-36.0,1.0,-38.0,-42.0,0.0,0.0,0.0,0.0,0.0,0.0,0.0,0.0,0
-20.0,25.0,33.0,-10.0,-42.0,1.0,-35.0,-38.0,0.0,0.0,0.0,0.0,0.0,0.0,0.0,0.0,0
-38.0,30.0,12.0,-41.0,-50.0,-8.0,-37.0,-30.0,0.0,0.0,0.0,0.0,0.0,0.0,0.0,0.0,0
-46.0,15.0,-14.0,-60.0,-56.0,-30.0,-40.0,-29.0,0.0,0.0,0.0,0.0,0.0,0.0,0.0,0.0,0
-38.0,-3.0,-24.0,-48.0,-51.0,-33.0,-40.0,-23.0,0.0,0.0,0.0,0.0,0.0,0.0,0.0,0.0,0
-51.0,-13.0,-30.0,-44.0,-42.0,-40.0,-33.0,-8.0,0.0,0.0,0.0,0.0,0.0,0.0,0.0,0.0,0
-79.0,-48.0,-55.0,-50.0,-32.0,-44.0,-36.0,-4.0,0.0,0.0,0.0,0.0,0.0,0.0,0.0,0.0,0
-103.0,-93.0,-75.0,-49.0,-26.0,-56.0,-57.0,-11.0,0.0,0.0,0.0,0.0,0.0,0.0,0.0,0.0,0
-115.0,-139.0,-97.0,-58.0,-35.0,-66.0,-67.0,-14.0,0.0,0.0,0.0,0.0,0.0,0.0,0.0,0.0,0
-85.0,-132.0,-107.0,-64.0,-40.0,-69.0,-51.0,3.0,0.0,0.0,0.0,0.0,0.0,0.0,0.0,0.0,0
-41.0,-111.0,-102.0,-53.0,-34.0,-67.0,-43.0,7.0,0.0,0.0,0.0,0.0,0.0,0.0,0.0,0.0,0
-34.0,-89.0,-85.0,-43.0,-32.0,-70.0,-32.0,6.0,0.0,0.0,0.0,0.0,0.0,0.0,0.0,0.0,0
-11.0,-43.0,-74.0,-39.0,-48.0,-73.0,-16.0,3.0,0.0,0.0,0.0,0.0,0.0,0.0,0.0,0.0,0
13.0,-33.0,-77.0,-59.0,-60.0,-77.0,-15.0,1.0,0.0,0.0,0.0,0.0,0.0,0.0,0.0,0.0,0
16.0,-35.0,-77.0,-49.0,-45.0,-73.0,-35.0,-20.0,0.0,0.0,0.0,0.0,0.0,0.0,0.0,0.0,0
25.0,-10.0,-58.0,-42.0,-37.0,-63.0,-59.0,-46.0,0.0,0.0,0.0,0.0,0.0,0.0,0.0,0.0,0
15.0,26.0,-23.0,-33.0,-35.0,-34.0,-69.0,-63.0,0.0,0.0,0.0,0.0,0.0,0.0,0.0,0.0,0
-34.0,30.0,-1.0,-30.0,-30.0,-17.0,-69.0,-68.0,0.0,0.0,0.0,0.0,0.0,0.0,0.0,0.0,0
-51.0,0.0,-4.0,-28.0,-27.0,-6.0,-62.0,-59.0,0.0,0.0,0.0,0.0,0.0,0.0,0.0,0.0,0
-57.0,12.0,2.0,-26.0,-16.0,1.0,-56.0,-63.0,0.0,0.0,0.0,0.0,0.0,0.0,0.0,0.0,0
-88.0,8.0,5.0,-24.0,-20.0,-1.0,-62.0,-77.0,0.0,0.0,0.0,0.0,0.0,0.0,0.0,0.0,0
-86.0,7.0,12.0,-5.0,-17.0,-2.0,-55.0,-70.0,0.0,0.0,0.0,0.0,0.0,0.0,0.0,0.0,0
-69.0,-4.0,28.0,10.0,-10.0,-2.0,-43.0,-48.0,0.0,0.0,0.0,0.0,0.0,0.0,0.0,0.0,0
-80.0,-24.0,40.0,9.0,-10.0,-4.0,-34.0,-35.0,0.0,0.0,0.0,0.0,0.0,0.0,0.0,0.0,0
-81.0,-46.0,37.0,6.0,-11.0,-9.0,-30.0,-21.0,0.0,0.0,0.0,0.0,0.0,0.0,0.0,0.0,0
-67.0,-54.0,21.0,6.0,-5.0,-15.0,-23.0,-3.0,0.0,0.0,0.0,0.0,0.0,0.0,0.0,0.0,0
-65.0,-61.0,4.0,-3.0,2.0,-29.0,-15.0,15.0,0.0,0.0,0.0,0.0,0.0,0.0,0.0,0.0,0
-71.0,-83.0,-20.0,-6.0,-6.0,-35.0,-10.0,18.0,0.0,0.0,0.0,0.0,0.0,0.0,0.0,0.0,0
-66.0,-98.0,-31.0,-15.0,5.0,-41.0,-24.0,2.0,0.0,0.0,0.0,0.0,0.0,0.0,0.0,0.0,0
-40.0,-89.0,-45.0,-34.0,-3.0,-56.0,-49.0,-22.0,0.0,0.0,0.0,0.0,0.0,0.0,0.0,0.0,0
-16.0,-72.0,-59.0,-55.0,-23.0,-64.0,-49.0,-15.0,0.0,0.0,0.0,0.0,0.0,0.0,0.0,0.0,0
-4.0,-69.0,-70.0,-81.0,-38.0,-70.0,-45.0,-11.0,0.0,0.0,0.0,0.0,0.0,0.0,0.0,0.0,0
15.0,-63.0,-75.0,-88.0,-50.0,-61.0,-32.0,0.0,0.0,0.0,0.0,0.0,0.0,0.0,0.0,0.0,0
26.0,-44.0,-72.0,-83.0,-52.0,-48.0,-12.0,-1.0,0.0,0.0,0.0,0.0,0.0,0.0,0.0,0.0,0
23.0,-27.0,-59.0,-85.0,-64.0,-43.0,2.0,1.0,0.0,0.0,0.0,0.0,0.0,0.0,0.0,0.0,0
22.0,-8.0,-39.0,-79.0,-67.0,-41.0,-2.0,2.0,0.0,0.0,0.0,0.0,0.0,0.0,0.0,0.0,0
8.0,-7.0,-33.0,-82.0,-74.0,-19.0,-10.0,-15.0,0.0,0.0,0.0,0.0,0.0,0.0,0.0,0.0,0
-8.0,-11.0,-20.0,-63.0,-68.0,-9.0,-22.0,-34.0,0.0,0.0,0.0,0.0,0.0,0.0,0.0,0.0,0
-12.0,1.0,7.0,-43.0,-57.0,-1.0,-38.0,-58.0,0.0,0.0,0.0,0.0,0.0,0.0,0.0,0.0,0
-19.0,0.0,7.0,-38.0,-58.0,7.0,-50.0,-77.0,0.0,0.0,0.0,0.0,0.0,0.0,0.0,0.0,0
-32.0,-1.0,11.0,-29.0,-63.0,7.0,-43.0,-77.0,0.0,0.0,0.0,0.0,0.0,0.0,0.0,0.0,0
-42.0,3.0,23.0,-14.0,-51.0,14.0,-27.0,-64.0,0.0,0.0,0.0,0.0,0.0,0.0,0.0,0.0,0
-63.0,-9.0,33.0,0.0,-32.0,21.0,-3.0,-51.0,0.0,0.0,0.0,0.0,0.0,0.0,0.0,0.0,0
-103.0,-55.0,5.0,-5.0,-32.0,16.0,7.0,-36.0,0.0,0.0,0.0,0.0,0.0,0.0,0.0,0.0,0
-104.0,-47.0,-20.0,-25.0,-36.0,0.0,0.0,-24.0,0.0,0.0,0.0,0.0,0.0,0.0,0.0,0.0,0
-99.0,-33.0,-35.0,-39.0,-45.0,-17.0,-20.0,-25.0,0.0,0.0,0.0,0.0,0.0,0.0,0.0,0.0,0
-68.0,-30.0,-43.0,-54.0,-50.0,-38.0,-21.0,-20.0,0.0,0.0,0.0,0.0,0.0,0.0,0.0,0.0,0
-59.0,-38.0,-63.0,-53.0,-50.0,-43.0,-32.0,-18.0,0.0,0.0,0.0,0.0,0.0,0.0,0.0,0.0,0
-53.0,-56.0,-88.0,-52.0,-41.0,-40.0,-55.0,-25.0,0.0,0.0,0.0,0.0,0.0,0.0,0.0,0.0,0
-43.0,-68.0,-96.0,-56.0,-49.0,-45.0,-57.0,-31.0,0.0,0.0,0.0,0.0,0.0,0.0,0.0,0.0,0
-24.0,-60.0,-87.0,-55.0,-51.0,-46.0,-51.0,-33.0,0.0,0.0,0.0,0.0,0.0,0.0,0.0,0.0,0
-10.0,-46.0,-84.0,-60.0,-52.0,-52.0,-50.0,-31.0,0.0,0.0,0.0,0.0,0.0,0.0,0.0,0.0,0
5.0,-42.0,-81.0,-54.0,-52.0,-51.0,-45.0,-34.0,0.0,0.0,0.0,0.0,0.0,0.0,0.0,0.0,0
-1.0,-43.0,-82.0,-57.0,-57.0,-52.0,-53.0,-43.0,0.0,0.0,0.0,0.0,0.0,0.0,0.0,0.0,0
11.0,-28.0,-88.0,-60.0,-65.0,-43.0,-54.0,-58.0,0.0,0.0,0.0,0.0,0.0,0.0,0.0,0.0,0
24.0,-16.0,-73.0,-39.0,-59.0,-29.0,-50.0,-63.0,0.0,0.0,0.0,0.0,0.0,0.0,0.0,0.0,0
16.0,-1.0,-29.0,-4.0,-31.0,-13.0,-48.0,-59.0,0.0,0.0,0.0,0.0,0.0,0.0,0.0,0.0,0
-21.0,11.0,-12.0,5.0,-39.0,-16.0,-37.0,-48.0,0.0,0.0,0.0,0.0,0.0,0.0,0.0,0.0,0
-26.0,22.0,4.0,6.0,-36.0,-11.0,-33.0,-49.0,0.0,0.0,0.0,0.0,0.0,0.0,0.0,0.0,0
-27.0,26.0,8.0,6.0,-28.0,-4.0,-18.0,-46.0,0.0,0.0,0.0,0.0,0.0,0.0,0.0,0.0,0
-29.0,47.0,23.0,24.0,-19.0,8.0,-14.0,-47.0,0.0,0.0,0.0,0.0,0.0,0.0,0.0,0.0,0
-33.0,44.0,28.0,23.0,-17.0,4.0,-13.0,-37.0,0.0,0.0,0.0,0.0,0.0,0.0,0.0,0.0,0
-57.0,3.0,16.0,2.0,-27.0,-12.0,-15.0,-34.0,0.0,0.0,0.0,0.0,0.0,0.0,0.0,0.0,0
-78.0,-14.0,-18.0,-19.0,-32.0,-25.0,-26.0,-29.0,0.0,0.0,0.0,0.0,0.0,0.0,0.0,0.0,0
-68.0,-3.0,-39.0,-34.0,-33.0,-30.0,-29.0,-26.0,0.0,0.0,0.0,0.0,0.0,0.0,0.0,0.0,0
-46.0,-15.0,-40.0,-47.0,-30.0,-43.0,-33.0,-26.0,0.0,0.0,0.0,0.0,0.0,0.0,0.0,0.0,0
-54.0,-48.0,-57.0,-56.0,-35.0,-44.0,-31.0,-31.0,0.0,0.0,0.0,0.0,0.0,0.0,0.0,0.0,0
-74.0,-62.0,-76.0,-73.0,-32.0,-50.0,-20.0,-17.0,0.0,0.0,0.0,0.0,0.0,0.0,0.0,0.0,0
-50.0,-70.0,-89.0,-75.0,-31.0,-55.0,-11.0,-1.0,0.0,0.0,0.0,0.0,0.0,0.0,0.0,0.0,0
-36.0,-85.0,-99.0,-72.0,-29.0,-55.0,-21.0,-1.0,0.0,0.0,0.0,0.0,0.0,0.0,0.0,0.0,0
-47.0,-93.0,-93.0,-67.0,-33.0,-59.0,-31.0,-4.0,0.0,0.0,0.0,0.0,0.0,0.0,0.0,0.0,0
-34.0,-83.0,-87.0,-66.0,-30.0,-68.0,-41.0,-6.0,0.0,0.0,0.0,0.0,0.0,0.0,0.0,0.0,0
-6.0,-71.0,-76.0,-49.0,-23.0,-62.0,-51.0,-20.0,0.0,0.0,0.0,0.0,0.0,0.0,0.0,0.0,0
11.0,-61.0,-60.0,-41.0,-16.0,-58.0,-76.0,-22.0,0.0,0.0,0.0,0.0,0.0,0.0,0.0,0.0,0
-7.0,-53.0,-55.0,-38.0,-22.0,-54.0,-83.0,-30.0,0.0,0.0,0.0,0.0,0.0,0.0,0.0,0.0,0
-31.0,-61.0,-41.0,-29.0,-29.0,-40.0,-56.0,-39.0,0.0,0.0,0.0,0.0,0.0,0.0,0.0,0.0,0
-5.0,-43.0,-19.0,-25.0,-32.0,-35.0,-37.0,-36.0,0.0,0.0,0.0,0.0,0.0,0.0,0.0,0.0,0
-33.0,-33.0,-9.0,-27.0,-41.0,-31.0,-25.0,-33.0,0.0,0.0,0.0,0.0,0.0,0.0,0.0,0.0,0
-60.0,-21.0,-3.0,-31.0,-46.0,-23.0,-29.0,-44.0,0.0,0.0,0.0,0.0,0.0,0.0,0.0,0.0,0
-21.0,10.0,14.0,-32.0,-51.0,-12.0,-30.0,-58.0,0.0,0.0,0.0,0.0,0.0,0.0,0.0,0.0,0
-27.0,4.0,16.0,-40.0,-51.0,-10.0,-29.0,-61.0,0.0,0.0,0.0,0.0,0.0,0.0,0.0,0.0,0
-28.0,-5.0,4.0,-45.0,-55.0,-11.0,-32.0,-48.0,0.0,0.0,0.0,0.0,0.0,0.0,0.0,0.0,0
-34.0,-9.0,-2.0,-55.0,-52.0,-12.0,-34.0,-34.0,0.0,0.0,0.0,0.0,0.0,0.0,0.0,0.0,0
-62.0,-18.0,-9.0,-61.0,-47.0,-20.0,-35.0,-27.0,0.0,0.0,0.0,0.0,0.0,0.0,0.0,0.0,0
-66.0,0.0,-8.0,-50.0,-32.0,-17.0,-23.0,-25.0,0.0,0.0,0.0,0.0,0.0,0.0,0.0,0.0,0
-51.0,10.0,-13.0,-36.0,-29.0,-23.0,-17.0,-18.0,0.0,0.0,0.0,0.0,0.0,0.0,0.0,0.0,0
-27.0,28.0,-14.0,-38.0,-28.0,-28.0,-19.0,-6.0,0.0,0.0,0.0,0.0,0.0,0.0,0.0,0.0,0
-32.0,28.0,-13.0,-46.0,-31.0,-43.0,-21.0,2.0,0.0,0.0,0.0,0.0,0.0,0.0,0.0,0.0,0
-27.0,-8.0,-41.0,-46.0,-25.0,-49.0,-27.0,-2.0,0.0,0.0,0.0,0.0,0.0,0.0,0.0,0.0,0
-16.0,-45.0,-34.0,-26.0,-1.0,-47.0,-29.0,-1.0,0.0,0.0,0.0,0.0,0.0,0.0,0.0,0.0,0
-17.0,-74.0,-37.0,-22.0,2.0,-45.0,-30.0,-3.0,0.0,0.0,0.0,0.0,0.0,0.0,0.0,0.0,0
-32.0,-89.0,-44.0,-22.0,0.0,-50.0,-31.0,-9.0,0.0,0.0,0.0,0.0,0.0,0.0,0.0,0.0,0
-24.0,-79.0,-51.0,-16.0,8.0,-46.0,-32.0,-29.0,0.0,0.0,0.0,0.0,0.0,0.0,0.0,0.0,0
-40.0,-86.0,-67.0,-21.0,11.0,-45.0,-41.0,-42.0,0.0,0.0,0.0,0.0,0.0,0.0,0.0,0.0,0
-71.0,-83.0,-75.0,-26.0,-1.0,-41.0,-43.0,-45.0,0.0,0.0,0.0,0.0,0.0,0.0,0.0,0.0,0
-77.0,-56.0,-56.0,-20.0,-14.0,-42.0,-39.0,-48.0,0.0,0.0,0.0,0.0,0.0,0.0,0.0,0.0,0
-104.0,-53.0,-37.0,-27.0,-36.0,-46.0,-46.0,-60.0,0.0,0.0,0.0,0.0,0.0,0.0,0.0,0.0,0
-110.0,-49.0,-9.0,-30.0,-50.0,-46.0,-49.0,-68.0,0.0,0.0,0.0,0.0,0.0,0.0,0.0,0.0,0
-80.0,-28.0,25.0,-23.0,-43.0,-36.0,-45.0,-65.0,0.0,0.0,0.0,0.0,0.0,0.0,0.0,0.0,0
-51.0,-26.0,23.0,-27.0,-37.0,-17.0,-41.0,-52.0,0.0,0.0,0.0,0.0,0.0,0.0,0.0,0.0,0
-28.0,-22.0,4.0,-34.0,-30.0,-1.0,-33.0,-48.0,0.0,0.0,0.0,0.0,0.0,0.0,0.0,0.0,0
-7.0,-8.0,4.0,-33.0,-33.0,2.0,-37.0,-52.0,0.0,0.0,0.0,0.0,0.0,0.0,0.0,0.0,0
-9.0,-1.0,5.0,-38.0,-39.0,-7.0,-56.0,-63.0,0.0,0.0,0.0,0.0,0.0,0.0,0.0,0.0,0
-11.0,0.0,-7.0,-49.0,-37.0,-18.0,-60.0,-55.0,0.0,0.0,0.0,0.0,0.0,0.0,0.0,0.0,0
0.0,3.0,-20.0,-51.0,-35.0,-23.0,-50.0,-45.0,0.0,0.0,0.0,0.0,0.0,0.0,0.0,0.0,0
15.0,14.0,-33.0,-59.0,-44.0,-33.0,-42.0,-35.0,0.0,0.0,0.0,0.0,0.0,0.0,0.0,0.0,0
9.0,-7.0,-45.0,-62.0,-51.0,-30.0,-30.0,-16.0,0.0,0.0,0.0,0.0,0.0,0.0,0.0,0.0,0
-13.0,-42.0,-57.0,-57.0,-46.0,-30.0,-8.0,2.0,0.0,0.0,0.0,0.0,0.0,0.0,0.0,0.0,0
-19.0,-66.0,-75.0,-51.0,-31.0,-38.0,-7.0,9.0,0.0,0.0,0.0,0.0,0.0,0.0,0.0,0.0,0
-7.0,-68.0,-90.0,-53.0,-25.0,-50.0,-19.0,-6.0,0.0,0.0,0.0,0.0,0.0,0.0,0.0,0.0,0
3.0,-65.0,-86.0,-43.0,-25.0,-50.0,-32.0,-18.0,0.0,0.0,0.0,0.0,0.0,0.0,0.0,0.0,0
-1.0,-58.0,-76.0,-41.0,-15.0,-40.0,-37.0,-22.0,0.0,0.0,0.0,0.0,0.0,0.0,0.0,0.0,0
0.0,-54.0,-73.0,-51.0,-16.0,-45.0,-45.0,-29.0,0.0,0.0,0.0,0.0,0.0,0.0,0.0,0.0,0
13.0,-43.0,-84.0,-59.0,-23.0,-42.0,-46.0,-43.0,0.0,0.0,0.0,0.0,0.0,0.0,0.0,0.0,0
8.0,-36.0,-84.0,-56.0,-35.0,-43.0,-40.0,-42.0,0.0,0.0,0.0,0.0,0.0,0.0,0.0,0.0,0
6.0,-45.0,-74.0,-55.0,-35.0,-46.0,-38.0,-51.0,0.0,0.0,0.0,0.0,0.0,0.0,0.0,0.0,0
-12.0,-48.0,-56.0,-58.0,-36.0,-35.0,-35.0,-53.0,0.0,0.0,0.0,0.0,0.0,0.0,0.0,0.0,0
-31.0,-41.0,-44.0,-63.0,-41.0,-33.0,-9.0,-41.0,0.0,0.0,0.0,0.0,0.0,0.0,0.0,0.0,0
-30.0,-39.0,-35.0,-53.0,-43.0,-26.0,35.0,-37.0,0.0,0.0,0.0,0.0,0.0,0.0,0.0,0.0,0
-32.0,-33.0,-27.0,-40.0,-33.0,-16.0,37.0,-36.0,0.0,0.0,0.0,0.0,0.0,0.0,0.0,0.0,0
-43.0,-36.0,-17.0,-28.0,-24.0,-14.0,17.0,-45.0,0.0,0.0,0.0,0.0,0.0,0.0,0.0,0.0,0
-53.0,-55.0,-14.0,-15.0,-16.0,-11.0,-19.0,-43.0,0.0,0.0,0.0,0.0,0.0,0.0,0.0,0.0,0
-44.0,-37.0,2.0,-1.0,-18.0,-18.0,-62.0,-53.0,0.0,0.0,0.0,0.0,0.0,0.0,0.0,0.0,0
-37.0,-15.0,9.0,0.0,-22.0,-30.0,-142.0,-68.0,0.0,0.0,0.0,0.0,0.0,0.0,0.0,0.0,0
-42.0,-8.0,2.0,-1.0,-22.0,-43.0,-181.0,-63.0,0.0,0.0,0.0,0.0,0.0,0.0,0.0,0.0,0
-31.0,-17.0,-10.0,0.0,-16.0,-44.0,-130.0,-33.0,0.0,0.0,0.0,0.0,0.0,0.0,0.0,0.0,0
-37.0,-6.0,-3.0,12.0,-9.0,-38.0,-56.0,-21.0,0.0,0.0,0.0,0.0,0.0,0.0,0.0,0.0,0
-53.0,-4.0,-18.0,7.0,-10.0,-34.0,-13.0,-11.0,0.0,0.0,0.0,0.0,0.0,0.0,0.0,0.0,0
-43.0,-33.0,-47.0,-8.0,-18.0,-43.0,-1.0,-5.0,0.0,0.0,0.0,0.0,0.0,0.0,0.0,0.0,0
-33.0,-63.0,-52.0,-18.0,-14.0,-49.0,0.0,-15.0,0.0,0.0,0.0,0.0,0.0,0.0,0.0,0.0,0
-64.0,-67.0,-66.0,-32.0,-23.0,-54.0,-2.0,-19.0,0.0,0.0,0.0,0.0,0.0,0.0,0.0,0.0,0
-79.0,-57.0,-82.0,-50.0,-38.0,-64.0,-8.0,-21.0,0.0,0.0,0.0,0.0,0.0,0.0,0.0,0.0,0
-18.0,-49.0,-66.0,-35.0,-15.0,-49.0,-10.0,-20.0,0.0,0.0,0.0,0.0,0.0,0.0,0.0,0.0,0
-3.0,-58.0,-72.0,-33.0,-14.0,-36.0,-5.0,-24.0,0.0,0.0,0.0,0.0,0.0,0.0,0.0,0.0,0
-36.0,-56.0,-66.0,-50.0,-31.0,-36.0,-5.0,-29.0,0.0,0.0,0.0,0.0,0.0,0.0,0.0,0.0,0
-40.0,-68.0,-58.0,-57.0,-31.0,-40.0,-5.0,-40.0,0.0,0.0,0.0,0.0,0.0,0.0,0.0,0.0,0
-55.0,-65.0,-54.0,-56.0,-45.0,-47.0,-16.0,-49.0,0.0,0.0,0.0,0.0,0.0,0.0,0.0,0.0,0
-106.0,-59.0,-26.0,-44.0,-52.0,-45.0,-22.0,-51.0,0.0,0.0,0.0,0.0,0.0,0.0,0.0,0.0,0
-59.0,-17.0,21.0,-22.0,-56.0,-33.0,-11.0,-50.0,0.0,0.0,0.0,0.0,0.0,0.0,0.0,0.0,0
-32.0,-20.0,16.0,-28.0,-60.0,-32.0,2.0,-36.0,0.0,0.0,0.0,0.0,0.0,0.0,0.0,0.0,0
-53.0,-28.0,20.0,-15.0,-39.0,-30.0,-13.0,-45.0,0.0,0.0,0.0,0.0,0.0,0.0,0.0,0.0,0
-48.0,-10.0,23.0,-10.0,-38.0,-26.0,-36.0,-70.0,0.0,0.0,0.0,0.0,0.0,0.0,0.0,0.0,0
-45.0,-14.0,5.0,-27.0,-40.0,-21.0,-39.0,-75.0,0.0,0.0,0.0,0.0,0.0,0.0,0.0,0.0,0
-38.0,-7.0,-3.0,-36.0,-35.0,-18.0,-14.0,-49.0,0.0,0.0,0.0,0.0,0.0,0.0,0.0,0.0,0
-42.0,1.0,-13.0,-33.0,-36.0,-7.0,-1.0,-14.0,0.0,0.0,0.0,0.0,0.0,0.0,0.0,0.0,0
-43.0,-15.0,-24.0,-32.0,-37.0,-11.0,5.0,-4.0,0.0,0.0,0.0,0.0,0.0,0.0,0.0,0.0,0
-43.0,-41.0,-33.0,-41.0,-42.0,-24.0,-2.0,-8.0,0.0,0.0,0.0,0.0,0.0,0.0,0.0,0.0,0
-54.0,-54.0,-30.0,-41.0,-48.0,-35.0,-13.0,6.0,0.0,0.0,0.0,0.0,0.0,0.0,0.0,0.0,0
-57.0,-79.0,-47.0,-42.0,-50.0,-47.0,-26.0,7.0,0.0,0.0,0.0,0.0,0.0,0.0,0.0,0.0,0
-50.0,-97.0,-69.0,-53.0,-49.0,-49.0,-34.0,-1.0,0.0,0.0,0.0,0.0,0.0,0.0,0.0,0.0,0
-42.0,-68.0,-61.0,-47.0,-41.0,-43.0,-35.0,-14.0,0.0,0.0,0.0,0.0,0.0,0.0,0.0,0.0,0
-12.0,-29.0,-50.0,-39.0,-19.0,-35.0,-27.0,-26.0,0.0,0.0,0.0,0.0,0.0,0.0,0.0,0.0,0
10.0,-4.0,-40.0,-42.0,-14.0,-36.0,-30.0,-35.0,0.0,0.0,0.0,0.0,0.0,0.0,0.0,0.0,0
25.0,9.0,-40.0,-47.0,-18.0,-41.0,-48.0,-37.0,0.0,0.0,0.0,0.0,0.0,0.0,0.0,0.0,0
13.0,8.0,-32.0,-50.0,-19.0,-40.0,-52.0,-32.0,0.0,0.0,0.0,0.0,0.0,0.0,0.0,0.0,0
8.0,9.0,-31.0,-54.0,-22.0,-40.0,-60.0,-33.0,0.0,0.0,0.0,0.0,0.0,0.0,0.0,0.0,0
19.0,7.0,-33.0,-58.0,-31.0,-36.0,-71.0,-48.0,0.0,0.0,0.0,0.0,0.0,0.0,0.0,0.0,0
0.0,-15.0,-31.0,-57.0,-25.0,-26.0,-72.0,-46.0,0.0,0.0,0.0,0.0,0.0,0.0,0.0,0.0,0
-38.0,-65.0,-39.0,-58.0,-26.0,-22.0,-64.0,-42.0,0.0,0.0,0.0,0.0,0.0,0.0,0.0,0.0,0
-76.0,-81.0,-35.0,-58.0,-35.0,-24.0,-56.0,-48.0,0.0,0.0,0.0,0.0,0.0,0.0,0.0,0.0,0
-64.0,-51.0,-16.0,-41.0,-29.0,-17.0,-52.0,-56.0,0.0,0.0,0.0,0.0,0.0,0.0,0.0,0.0,0
-40.0,-24.0,-5.0,-32.0,-27.0,-15.0,-54.0,-47.0,0.0,0.0,0.0,0.0,0.0,0.0,0.0,0.0,0
-39.0,-26.0,-2.0,-26.0,-30.0,-12.0,-51.0,-45.0,0.0,0.0,0.0,0.0,0.0,0.0,0.0,0.0,0
-53.0,-31.0,-2.0,-17.0,-34.0,-20.0,-42.0,-38.0,0.0,0.0,0.0,0.0,0.0,0.0,0.0,0.0,0
-47.0,-19.0,-1.0,-11.0,-32.0,-31.0,-38.0,-38.0,0.0,0.0,0.0,0.0,0.0,0.0,0.0,0.0,0
-28.0,-19.0,-5.0,3.0,-26.0,-27.0,-31.0,-39.0,0.0,0.0,0.0,0.0,0.0,0.0,0.0,0.0,0
-56.0,-53.0,-24.0,6.0,-39.0,-34.0,-18.0,-25.0,0.0,0.0,0.0,0.0,0.0,0.0,0.0,0.0,0
-76.0,-65.0,-28.0,20.0,-28.0,-35.0,-18.0,-31.0,0.0,0.0,0.0,0.0,0.0,0.0,0.0,0.0,0
-60.0,-59.0,-26.0,23.0,-12.0,-35.0,-54.0,-42.0,0.0,0.0,0.0,0.0,0.0,0.0,0.0,0.0,0
-34.0,-58.0,-35.0,15.0,-16.0,-38.0,-59.0,-45.0,0.0,0.0,0.0,0.0,0.0,0.0,0.0,0.0,0
-18.0,-49.0,-40.0,-10.0,-30.0,-46.0,-47.0,-35.0,0.0,0.0,0.0,0.0,0.0,0.0,0.0,0.0,0
-27.0,-34.0,-43.0,-31.0,-44.0,-38.0,-30.0,-20.0,0.0,0.0,0.0,0.0,0.0,0.0,0.0,0.0,0
-5.0,-17.0,-40.0,-48.0,-45.0,-39.0,-30.0,-25.0,0.0,0.0,0.0,0.0,0.0,0.0,0.0,0.0,0
6.0,-11.0,-55.0,-63.0,-48.0,-46.0,-31.0,-33.0,0.0,0.0,0.0,0.0,0.0,0.0,0.0,0.0,0
-9.0,-9.0,-57.0,-72.0,-53.0,-44.0,-30.0,-36.0,0.0,0.0,0.0,0.0,0.0,0.0,0.0,0.0,0
-13.0,-5.0,-53.0,-78.0,-55.0,-43.0,-29.0,-42.0,0.0,0.0,0.0,0.0,0.0,0.0,0.0,0.0,0
-17.0,-11.0,-48.0,-85.0,-63.0,-44.0,-24.0,-40.0,0.0,0.0,0.0,0.0,0.0,0.0,0.0,0.0,0
-39.0,-20.0,-38.0,-79.0,-46.0,-36.0,-20.0,-32.0,0.0,0.0,0.0,0.0,0.0,0.0,0.0,0.0,0
-51.0,-22.0,-24.0,-62.0,-40.0,-30.0,-14.0,-27.0,0.0,0.0,0.0,0.0,0.0,0.0,0.0,0.0,0
-38.0,-8.0,-18.0,-66.0,-52.0,-31.0,-13.0,-35.0,0.0,0.0,0.0,0.0,0.0,0.0,0.0,0.0,0
-27.0,-9.0,-15.0,-59.0,-55.0,-32.0,-9.0,-34.0,0.0,0.0,0.0,0.0,0.0,0.0,0.0,0.0,0
-49.0,-35.0,-26.0,-51.0,-60.0,-25.0,-12.0,-34.0,0.0,0.0,0.0,0.0,0.0,0.0,0.0,0.0,0
-65.0,-54.0,-37.0,-51.0,-61.0,-34.0,-15.0,-28.0,0.0,0.0,0.0,0.0,0.0,0.0,0.0,0.0,0
-63.0,-51.0,-22.0,-34.0,-60.0,-32.0,-19.0,-34.0,0.0,0.0,0.0,0.0,0.0,0.0,0.0,0.0,0
-38.0,-45.0,0.0,-15.0,-56.0,-42.0,-25.0,-37.0,0.0,0.0,0.0,0.0,0.0,0.0,0.0,0.0,0
-27.0,-49.0,7.0,-7.0,-55.0,-47.0,-29.0,-29.0,0.0,0.0,0.0,0.0,0.0,0.0,0.0,0.0,0
-34.0,-55.0,7.0,-4.0,-45.0,-44.0,-21.0,-22.0,0.0,0.0,0.0,0.0,0.0,0.0,0.0,0.0,0
-76.0,-61.0,-4.0,-2.0,-33.0,-38.0,-2.0,-17.0,0.0,0.0,0.0,0.0,0.0,0.0,0.0,0.0,0
-79.0,-62.0,-25.0,-6.0,-28.0,-33.0,6.0,-21.0,0.0,0.0,0.0,0.0,0.0,0.0,0.0,0.0,0
-50.0,-68.0,-32.0,-2.0,-21.0,-33.0,-3.0,-25.0,0.0,0.0,0.0,0.0,0.0,0.0,0.0,0.0,0
-24.0,-56.0,-29.0,3.0,-13.0,-29.0,-17.0,-32.0,0.0,0.0,0.0,0.0,0.0,0.0,0.0,0.0,0
4.0,-39.0,-34.0,-4.0,-4.0,-28.0,-25.0,-33.0,0.0,0.0,0.0,0.0,0.0,0.0,0.0,0.0,0
4.0,-42.0,-45.0,-11.0,0.0,-30.0,-55.0,-42.0,0.0,0.0,0.0,0.0,0.0,0.0,0.0,0.0,0
-8.0,-37.0,-37.0,-17.0,2.0,-36.0,-80.0,-36.0,0.0,0.0,0.0,0.0,0.0,0.0,0.0,0.0,0
-26.0,-51.0,-38.0,-31.0,-11.0,-41.0,-110.0,-42.0,0.0,0.0,0.0,0.0,0.0,0.0,0.0,0.0,0
-53.0,-62.0,-32.0,-38.0,-17.0,-40.0,-109.0,-51.0,0.0,0.0,0.0,0.0,0.0,0.0,0.0,0.0,0
-45.0,-38.0,-21.0,-44.0,-20.0,-31.0,-75.0,-46.0,0.0,0.0,0.0,0.0,0.0,0.0,0.0,0.0,0
-38.0,-22.0,-30.0,-60.0,-33.0,-30.0,-56.0,-42.0,0.0,0.0,0.0,0.0,0.0,0.0,0.0,0.0,0
-38.0,-25.0,-40.0,-80.0,-49.0,-28.0,-38.0,-47.0,0.0,0.0,0.0,0.0,0.0,0.0,0.0,0.0,0
-39.0,-37.0,-46.0,-87.0,-61.0,-28.0,-20.0,-47.0,0.0,0.0,0.0,0.0,0.0,0.0,0.0,0.0,0
-46.0,-27.0,-30.0,-69.0,-45.0,-23.0,-18.0,-48.0,0.0,0.0,0.0,0.0,0.0,0.0,0.0,0.0,0
-62.0,1.0,-24.0,-57.0,-39.0,-7.0,-19.0,-51.0,0.0,0.0,0.0,0.0,0.0,0.0,0.0,0.0,0
-14.0,51.0,-18.0,-50.0,-32.0,-4.0,-15.0,-36.0,0.0,0.0,0.0,0.0,0.0,0.0,0.0,0.0,0
-20.0,50.0,-36.0,-46.0,-35.0,-4.0,-19.0,-39.0,0.0,0.0,0.0,0.0,0.0,0.0,0.0,0.0,0
-44.0,7.0,-44.0,-37.0,-34.0,-5.0,-27.0,-46.0,0.0,0.0,0.0,0.0,0.0,0.0,0.0,0.0,0
-32.0,-31.0,-54.0,-31.0,-38.0,-9.0,-30.0,-33.0,0.0,0.0,0.0,0.0,0.0,0.0,0.0,0.0,0
-50.0,-71.0,-71.0,-37.0,-47.0,-6.0,-35.0,-38.0,0.0,0.0,0.0,0.0,0.0,0.0,0.0,0.0,0
-83.0,-120.0,-74.0,-46.0,-52.0,-21.0,-26.0,-31.0,0.0,0.0,0.0,0.0,0.0,0.0,0.0,0.0,0
-73.0,-126.0,-70.0,-47.0,-55.0,-29.0,-24.0,-25.0,0.0,0.0,0.0,0.0,0.0,0.0,0.0,0.0,0
-47.0,-78.0,-61.0,-43.0,-62.0,-35.0,-24.0,-25.0,0.0,0.0,0.0,0.0,0.0,0.0,0.0,0.0,0
-31.0,-44.0,-54.0,-34.0,-55.0,-43.0,-29.0,-28.0,0.0,0.0,0.0,0.0,0.0,0.0,0.0,0.0,0
-25.0,-33.0,-48.0,-39.0,-39.0,-37.0,-33.0,-33.0,0.0,0.0,0.0,0.0,0.0,0.0,0.0,0.0,0
-13.0,-25.0,-53.0,-43.0,-30.0,-30.0,-35.0,-37.0,0.0,0.0,0.0,0.0,0.0,0.0,0.0,0.0,0
-8.0,-25.0,-48.0,-49.0,-22.0,-36.0,-54.0,-45.0,0.0,0.0,0.0,0.0,0.0,0.0,0.0,0.0,0
4.0,-16.0,-37.0,-42.0,-23.0,-35.0,-69.0,-43.0,0.0,0.0,0.0,0.0,0.0,0.0,0.0,0.0,0
4.0,-7.0,-33.0,-41.0,-23.0,-30.0,-53.0,-43.0,0.0,0.0,0.0,0.0,0.0,0.0,0.0,0.0,0
-16.0,-4.0,-38.0,-52.0,-22.0,-24.0,-43.0,-47.0,0.0,0.0,0.0,0.0,0.0,0.0,0.0,0.0,0
-45.0,-21.0,-27.0,-47.0,-15.0,-23.0,-24.0,-29.0,0.0,0.0,0.0,0.0,0.0,0.0,0.0,0.0,0
-50.0,-21.0,-18.0,-45.0,-15.0,-17.0,-6.0,-14.0,0.0,0.0,0.0,0.0,0.0,0.0,0.0,0.0,0
-36.0,-12.0,-15.0,-35.0,-18.0,-20.0,5.0,-6.0,0.0,0.0,0.0,0.0,0.0,0.0,0.0,0.0,0
-16.0,-9.0,-10.0,-20.0,-21.0,-21.0,3.0,-3.0,0.0,0.0,0.0,0.0,0.0,0.0,0.0,0.0,0
9.0,-5.0,0.0,-8.0,-26.0,-23.0,-27.0,-20.0,0.0,0.0,0.0,0.0,0.0,0.0,0.0,0.0,0
7.0,-26.0,0.0,-4.0,-26.0,-28.0,-43.0,-32.0,0.0,0.0,0.0,0.0,0.0,0.0,0.0,0.0,0
-19.0,-59.0,-8.0,-12.0,-23.0,-31.0,-46.0,-39.0,0.0,0.0,0.0,0.0,0.0,0.0,0.0,0.0,0
-9.0,-46.0,6.0,-6.0,-26.0,-37.0,-52.0,-43.0,0.0,0.0,0.0,0.0,0.0,0.0,0.0,0.0,0
-42.0,-60.0,-3.0,-9.0,-33.0,-39.0,-57.0,-53.0,0.0,0.0,0.0,0.0,0.0,0.0,0.0,0.0,0
-73.0,-98.0,-30.0,-24.0,-34.0,-41.0,-58.0,-50.0,0.0,0.0,0.0,0.0,0.0,0.0,0.0,0.0,0
-80.0,-93.0,-24.0,-10.0,-28.0,-36.0,-56.0,-43.0,0.0,0.0,0.0,0.0,0.0,0.0,0.0,0.0,0
-110.0,-93.0,-26.0,3.0,-25.0,-37.0,-50.0,-47.0,0.0,0.0,0.0,0.0,0.0,0.0,0.0,0.0,0
-104.0,-86.0,-35.0,-7.0,-22.0,-45.0,-52.0,-44.0,0.0,0.0,0.0,0.0,0.0,0.0,0.0,0.0,0
-69.0,-65.0,-35.0,-21.0,-26.0,-51.0,-50.0,-50.0,0.0,0.0,0.0,0.0,0.0,0.0,0.0,0.0,0
-45.0,-40.0,-44.0,-29.0,-36.0,-57.0,-49.0,-51.0,0.0,0.0,0.0,0.0,0.0,0.0,0.0,0.0,0
-5.0,-29.0,-45.0,-32.0,-32.0,-56.0,-50.0,-48.0,0.0,0.0,0.0,0.0,0.0,0.0,0.0,0.0,0
19.0,-16.0,-40.0,-30.0,-22.0,-48.0,-38.0,-36.0,0.0,0.0,0.0,0.0,0.0,0.0,0.0,0.0,0
-1.0,-3.0,-34.0,-30.0,-8.0,-48.0,-32.0,-28.0,0.0,0.0,0.0,0.0,0.0,0.0,0.0,0.0,0
1.0,11.0,-23.0,-23.0,-8.0,-43.0,-33.0,-22.0,0.0,0.0,0.0,0.0,0.0,0.0,0.0,0.0,0
10.0,10.0,-18.0,-27.0,2.0,-39.0,-34.0,-25.0,0.0,0.0,0.0,0.0,0.0,0.0,0.0,0.0,0
-9.0,-4.0,-31.0,-40.0,-6.0,-40.0,-34.0,-20.0,0.0,0.0,0.0,0.0,0.0,0.0,0.0,0.0,0
-21.0,-15.0,-31.0,-48.0,-11.0,-33.0,-33.0,-18.0,0.0,0.0,0.0,0.0,0.0,0.0,0.0,0.0,0
-45.0,-16.0,-31.0,-55.0,-17.0,-26.0,-26.0,-12.0,0.0,0.0,0.0,0.0,0.0,0.0,0.0,0.0,0
-35.0,-19.0,-28.0,-57.0,-22.0,-28.0,-27.0,-18.0,0.0,0.0,0.0,0.0,0.0,0.0,0.0,0.0,0
-18.0,-26.0,-30.0,-40.0,-25.0,-21.0,-28.0,-30.0,0.0,0.0,0.0,0.0,0.0,0.0,0.0,0.0,0
-21.0,-35.0,-30.0,-25.0,-20.0,-15.0,-20.0,-30.0,0.0,0.0,0.0,0.0,0.0,0.0,0.0,0.0,0
-38.0,-40.0,-14.0,-7.0,-12.0,-11.0,-13.0,-22.0,0.0,0.0,0.0,0.0,0.0,0.0,0.0,0.0,0
-45.0,-48.0,-9.0,8.0,-16.0,-26.0,-19.0,-17.0,0.0,0.0,0.0,0.0,0.0,0.0,0.0,0.0,0
-34.0,-38.0,-16.0,1.0,-37.0,-35.0,-33.0,-18.0,0.0,0.0,0.0,0.0,0.0,0.0,0.0,0.0,0
-26.0,-29.0,-26.0,-4.0,-38.0,-39.0,-41.0,-29.0,0.0,0.0,0.0,0.0,0.0,0.0,0.0,0.0,0
-40.0,-18.0,-24.0,-4.0,-46.0,-44.0,-44.0,-32.0,0.0,0.0,0.0,0.0,0.0,0.0,0.0,0.0,0
-34.0,-19.0,-41.0,-32.0,-61.0,-54.0,-45.0,-31.0,0.0,0.0,0.0,0.0,0.0,0.0,0.0,0.0,0
-13.0,-26.0,-66.0,-64.0,-81.0,-59.0,-46.0,-39.0,0.0,0.0,0.0,0.0,0.0,0.0,0.0,0.0,0
-42.0,-39.0,-78.0,-94.0,-85.0,-70.0,-51.0,-53.0,0.0,0.0,0.0,0.0,0.0,0.0,0.0,0.0,0
-82.0,-42.0,-79.0,-86.0,-77.0,-59.0,-55.0,-64.0,0.0,0.0,0.0,0.0,0.0,0.0,0.0,0.0,0
-47.0,-41.0,-75.0,-81.0,-64.0,-54.0,-60.0,-57.0,0.0,0.0,0.0,0.0,0.0,0.0,0.0,0.0,0
-22.0,-49.0,-72.0,-70.0,-54.0,-44.0,-53.0,-51.0,0.0,0.0,0.0,0.0,0.0,0.0,0.0,0.0,0
-39.0,-46.0,-56.0,-46.0,-29.0,-34.0,-42.0,-51.0,0.0,0.0,0.0,0.0,0.0,0.0,0.0,0.0,0
-45.0,-21.0,-54.0,-52.0,-24.0,-36.0,-33.0,-42.0,0.0,0.0,0.0,0.0,0.0,0.0,0.0,0.0,0
-32.0,-2.0,-55.0,-58.0,-30.0,-40.0,-21.0,-30.0,0.0,0.0,0.0,0.0,0.0,0.0,0.0,0.0,0
-34.0,11.0,-44.0,-58.0,-32.0,-38.0,-5.0,-16.0,0.0,0.0,0.0,0.0,0.0,0.0,0.0,0.0,0
-30.0,20.0,-25.0,-39.0,-30.0,-43.0,-15.0,-18.0,0.0,0.0,0.0,0.0,0.0,0.0,0.0,0.0,0
-48.0,13.0,-24.0,-39.0,-41.0,-49.0,-33.0,-36.0,0.0,0.0,0.0,0.0,0.0,0.0,0.0,0.0,0
-83.0,-27.0,-47.0,-62.0,-51.0,-51.0,-35.0,-44.0,0.0,0.0,0.0,0.0,0.0,0.0,0.0,0.0,0
-55.0,-48.0,-51.0,-55.0,-56.0,-44.0,-41.0,-42.0,0.0,0.0,0.0,0.0,0.0,0.0,0.0,0.0,0
-28.0,-50.0,-36.0,-43.0,-54.0,-38.0,-46.0,-40.0,0.0,0.0,0.0,0.0,0.0,0.0,0.0,0.0,0
-24.0,-49.0,-33.0,-40.0,-55.0,-39.0,-45.0,-45.0,0.0,0.0,0.0,0.0,0.0,0.0,0.0,0.0,0
-25.0,-47.0,-24.0,-28.0,-62.0,-38.0,-50.0,-40.0,0.0,0.0,0.0,0.0,0.0,0.0,0.0,0.0,0
-20.0,-45.0,-24.0,-20.0,-63.0,-34.0,-51.0,-38.0,0.0,0.0,0.0,0.0,0.0,0.0,0.0,0.0,0
-34.0,-73.0,-38.0,-24.0,-52.0,-40.0,-47.0,-38.0,0.0,0.0,0.0,0.0,0.0,0.0,0.0,0.0,0
-38.0,-59.0,-32.0,-13.0,-38.0,-31.0,-42.0,-31.0,0.0,0.0,0.0,0.0,0.0,0.0,0.0,0.0,0
-31.0,-43.0,-20.0,6.0,-31.0,-24.0,-31.0,-23.0,0.0,0.0,0.0,0.0,0.0,0.0,0.0,0.0,0
-46.0,-68.0,-32.0,19.0,-21.0,-20.0,-23.0,-22.0,0.0,0.0,0.0,0.0,0.0,0.0,0.0,0.0,0
-42.0,-50.0,-29.0,25.0,-6.0,-16.0,-30.0,-35.0,0.0,0.0,0.0,0.0,0.0,0.0,0.0,0.0,0
-42.0,-43.0,-43.0,5.0,-13.0,-22.0,-47.0,-50.0,0.0,0.0,0.0,0.0,0.0,0.0,0.0,0.0,0
-37.0,-46.0,-51.0,-2.0,-9.0,-25.0,-53.0,-58.0,0.0,0.0,0.0,0.0,0.0,0.0,0.0,0.0,0
-20.0,-47.0,-50.0,-4.0,-5.0,-25.0,-42.0,-44.0,0.0,0.0,0.0,0.0,0.0,0.0,0.0,0.0,0
-32.0,-46.0,-51.0,-4.0,2.0,-29.0,-23.0,-33.0,0.0,0.0,0.0,0.0,0.0,0.0,0.0,0.0,0
-19.0,-19.0,-7.0,26.0,12.0,-18.0,-6.0,-12.0,0.0,0.0,0.0,0.0,0.0,0.0,0.0,0.0,0
-17.0,1.0,19.0,37.0,15.0,-11.0,13.0,5.0,0.0,0.0,0.0,0.0,0.0,0.0,0.0,0.0,0
-71.0,-26.0,6.0,28.0,7.0,-13.0,26.0,7.0,0.0,0.0,0.0,0.0,0.0,0.0,0.0,0.0,0
-55.0,-22.0,11.0,26.0,10.0,-15.0,24.0,13.0,0.0,0.0,0.0,0.0,0.0,0.0,0.0,0.0,0
-22.0,2.0,28.0,23.0,0.0,-16.0,19.0,8.0,0.0,0.0,0.0,0.0,0.0,0.0,0.0,0.0,0
-18.0,10.0,23.0,-2.0,-26.0,-15.0,5.0,-6.0,0.0,0.0,0.0,0.0,0.0,0.0,0.0,0.0,0
-3.0,2.0,5.0,-23.0,-47.0,-27.0,-18.0,-23.0,0.0,0.0,0.0,0.0,0.0,0.0,0.0,0.0,0
7.0,0.0,-9.0,-48.0,-61.0,-31.0,-24.0,-29.0,0.0,0.0,0.0,0.0,0.0,0.0,0.0,0.0,0
-1.0,14.0,-23.0,-63.0,-75.0,-39.0,-35.0,-40.0,0.0,0.0,0.0,0.0,0.0,0.0,0.0,0.0,0
-17.0,7.0,-39.0,-78.0,-80.0,-47.0,-49.0,-49.0,0.0,0.0,0.0,0.0,0.0,0.0,0.0,0.0,0
-25.0,-48.0,-50.0,-74.0,-85.0,-53.0,-46.0,-42.0,0.0,0.0,0.0,0.0,0.0,0.0,0.0,0.0,0
-30.0,-103.0,-56.0,-66.0,-84.0,-53.0,-42.0,-34.0,0.0,0.0,0.0,0.0,0.0,0.0,0.0,0.0,0
-48.0,-101.0,-59.0,-59.0,-67.0,-51.0,-39.0,-31.0,0.0,0.0,0.0,0.0,0.0,0.0,0.0,0.0,0
-39.0,-83.0,-56.0,-52.0,-62.0,-51.0,-40.0,-48.0,0.0,0.0,0.0,0.0,0.0,0.0,0.0,0.0,0
-30.0,-72.0,-63.0,-49.0,-63.0,-48.0,-34.0,-61.0,0.0,0.0,0.0,0.0,0.0,0.0,0.0,0.0,0
-38.0,-57.0,-69.0,-58.0,-62.0,-42.0,-31.0,-44.0,0.0,0.0,0.0,0.0,0.0,0.0,0.0,0.0,0
-22.0,-17.0,-54.0,-58.0,-56.0,-40.0,-32.0,-47.0,0.0,0.0,0.0,0.0,0.0,0.0,0.0,0.0,0
7.0,0.0,-40.0,-49.0,-46.0,-42.0,-36.0,-46.0,0.0,0.0,0.0,0.0,0.0,0.0,0.0,0.0,0
8.0,3.0,-41.0,-58.0,-46.0,-43.0,-38.0,-41.0,0.0,0.0,0.0,0.0,0.0,0.0,0.0,0.0,0
-15.0,-4.0,-40.0,-66.0,-44.0,-47.0,-28.0,-46.0,0.0,0.0,0.0,0.0,0.0,0.0,0.0,0.0,0
-30.0,-30.0,-36.0,-61.0,-47.0,-45.0,-30.0,-40.0,0.0,0.0,0.0,0.0,0.0,0.0,0.0,0.0,0
-62.0,-56.0,-31.0,-59.0,-43.0,-47.0,-30.0,-37.0,0.0,0.0,0.0,0.0,0.0,0.0,0.0,0.0,0
-99.0,-99.0,-35.0,-62.0,-40.0,-42.0,-34.0,-31.0,0.0,0.0,0.0,0.0,0.0,0.0,0.0,0.0,0
-94.0,-118.0,-48.0,-56.0,-41.0,-36.0,-31.0,-29.0,0.0,0.0,0.0,0.0,0.0,0.0,0.0,0.0,0
-57.0,-67.0,-25.0,-36.0,-30.0,-33.0,-23.0,-17.0,0.0,0.0,0.0,0.0,0.0,0.0,0.0,0.0,0
-46.0,-25.0,-14.0,-38.0,-26.0,-25.0,-26.0,-14.0,0.0,0.0,0.0,0.0,0.0,0.0,0.0,0.0,0
-97.0,-57.0,-43.0,-59.0,-42.0,-31.0,-37.0,-29.0,0.0,0.0,0.0,0.0,0.0,0.0,0.0,0.0,0
-134.0,-70.0,-45.0,-63.0,-60.0,-43.0,-49.0,-44.0,0.0,0.0,0.0,0.0,0.0,0.0,0.0,0.0,0
-83.0,-42.0,-28.0,-57.0,-56.0,-48.0,-53.0,-34.0,0.0,0.0,0.0,0.0,0.0,0.0,0.0,0.0,0
-36.0,-22.0,-20.0,-34.0,-37.0,-37.0,-46.0,-25.0,0.0,0.0,0.0,0.0,0.0,0.0,0.0,0.0,0
-41.0,-30.0,-13.0,-26.0,-30.0,-26.0,-44.0,-23.0,0.0,0.0,0.0,0.0,0.0,0.0,0.0,0.0,0
-61.0,-46.0,-13.0,-11.0,-25.0,-18.0,-37.0,-22.0,0.0,0.0,0.0,0.0,0.0,0.0,0.0,0.0,0
-57.0,-52.0,-19.0,10.0,-8.0,-6.0,-27.0,-15.0,0.0,0.0,0.0,0.0,0.0,0.0,0.0,0.0,0
-8.0,-15.0,-5.0,23.0,4.0,-6.0,-29.0,-14.0,0.0,0.0,0.0,0.0,0.0,0.0,0.0,0.0,0
13.0,-4.0,-25.0,19.0,6.0,-12.0,-30.0,-20.0,0.0,0.0,0.0,0.0,0.0,0.0,0.0,0.0,0
-13.0,-20.0,-36.0,18.0,12.0,-11.0,-35.0,-32.0,0.0,0.0,0.0,0.0,0.0,0.0,0.0,0.0,0
-26.0,-14.0,-24.0,10.0,-2.0,-18.0,-32.0,-32.0,0.0,0.0,0.0,0.0,0.0,0.0,0.0,0.0,0
2.0,19.0,-12.0,-1.0,-17.0,-30.0,-28.0,-15.0,0.0,0.0,0.0,0.0,0.0,0.0,0.0,0.0,0
-10.0,35.0,0.0,-4.0,-29.0,-38.0,-26.0,-14.0,0.0,0.0,0.0,0.0,0.0,0.0,0.0,0.0,0
-51.0,5.0,-3.0,-16.0,-38.0,-38.0,-25.0,-19.0,0.0,0.0,0.0,0.0,0.0,0.0,0.0,0.0,0
-58.0,-14.0,-11.0,-23.0,-33.0,-39.0,-33.0,-33.0,0.0,0.0,0.0,0.0,0.0,0.0,0.0,0.0,0
-50.0,-13.0,-30.0,-46.0,-38.0,-44.0,-38.0,-42.0,0.0,0.0,0.0,0.0,0.0,0.0,0.0,0.0,0
-64.0,-27.0,-49.0,-61.0,-38.0,-47.0,-37.0,-36.0,0.0,0.0,0.0,0.0,0.0,0.0,0.0,0.0,0
-47.0,-24.0,-50.0,-43.0,-29.0,-38.0,-28.0,-31.0,0.0,0.0,0.0,0.0,0.0,0.0,0.0,0.0,0
-17.0,-13.0,-29.0,-43.0,-20.0,-32.0,-33.0,-33.0,0.0,0.0,0.0,0.0,0.0,0.0,0.0,0.0,0
5.0,6.0,-10.0,-31.0,-19.0,-27.0,-30.0,-40.0,0.0,0.0,0.0,0.0,0.0,0.0,0.0,0.0,0
27.0,30.0,-8.0,-24.0,-27.0,-29.0,-31.0,-32.0,0.0,0.0,0.0,0.0,0.0,0.0,0.0,0.0,0
21.0,35.0,-11.0,-35.0,-42.0,-33.0,-32.0,-31.0,0.0,0.0,0.0,0.0,0.0,0.0,0.0,0.0,0
-15.0,8.0,-40.0,-66.0,-56.0,-43.0,-35.0,-38.0,0.0,0.0,0.0,0.0,0.0,0.0,0.0,0.0,0
-28.0,-25.0,-55.0,-81.0,-63.0,-55.0,-40.0,-42.0,0.0,0.0,0.0,0.0,0.0,0.0,0.0,0.0,0
-33.0,-49.0,-53.0,-72.0,-52.0,-47.0,-34.0,-40.0,0.0,0.0,0.0,0.0,0.0,0.0,0.0,0.0,0
-39.0,-55.0,-58.0,-73.0,-57.0,-47.0,-30.0,-42.0,0.0,0.0,0.0,0.0,0.0,0.0,0.0,0.0,0
-64.0,-57.0,-63.0,-71.0,-62.0,-55.0,-39.0,-39.0,0.0,0.0,0.0,0.0,0.0,0.0,0.0,0.0,0
-67.0,-67.0,-67.0,-62.0,-52.0,-55.0,-43.0,-41.0,0.0,0.0,0.0,0.0,0.0,0.0,0.0,0.0,0
-29.0,-65.0,-41.0,-39.0,-31.0,-45.0,-25.0,-34.0,0.0,0.0,0.0,0.0,0.0,0.0,0.0,0.0,0
-35.0,-69.0,-47.0,-47.0,-29.0,-46.0,-26.0,-35.0,0.0,0.0,0.0,0.0,0.0,0.0,0.0,0.0,0
-58.0,-81.0,-74.0,-77.0,-46.0,-53.0,-40.0,-51.0,0.0,0.0,0.0,0.0,0.0,0.0,0.0,0.0,0
-21.0,-45.0,-56.0,-56.0,-33.0,-58.0,-44.0,-52.0,0.0,0.0,0.0,0.0,0.0,0.0,0.0,0.0,0
-15.0,-35.0,-52.0,-49.0,-29.0,-63.0,-35.0,-50.0,0.0,0.0,0.0,0.0,0.0,0.0,0.0,0.0,0
-25.0,-12.0,-55.0,-51.0,-28.0,-54.0,-33.0,-45.0,0.0,0.0,0.0,0.0,0.0,0.0,0.0,0.0,0
-27.0,-1.0,-46.0,-39.0,-10.0,-45.0,-29.0,-37.0,0.0,0.0,0.0,0.0,0.0,0.0,0.0,0.0,0
-9.0,-8.0,-24.0,-23.0,6.0,-44.0,-31.0,-41.0,0.0,0.0,0.0,0.0,0.0,0.0,0.0,0.0,0
-15.0,-17.0,-15.0,-28.0,0.0,-52.0,-32.0,-42.0,0.0,0.0,0.0,0.0,0.0,0.0,0.0,0.0,0
-24.0,-31.0,-20.0,-33.0,-10.0,-57.0,-33.0,-38.0,0.0,0.0,0.0,0.0,0.0,0.0,0.0,0.0,0
-28.0,-28.0,-15.0,-32.0,-5.0,-55.0,-40.0,-31.0,0.0,0.0,0.0,0.0,0.0,0.0,0.0,0.0,0
-31.0,-27.0,-14.0,-25.0,-1.0,-44.0,-33.0,-34.0,0.0,0.0,0.0,0.0,0.0,0.0,0.0,0.0,0
-29.0,-31.0,-17.0,-24.0,-5.0,-46.0,-30.0,-42.0,0.0,0.0,0.0,0.0,0.0,0.0,0.0,0.0,0
-22.0,-40.0,-30.0,-21.0,-8.0,-40.0,-32.0,-48.0,0.0,0.0,0.0,0.0,0.0,0.0,0.0,0.0,0
-44.0,-49.0,-34.0,-23.0,-16.0,-42.0,-26.0,-41.0,0.0,0.0,0.0,0.0,0.0,0.0,0.0,0.0,0
-53.0,-60.0,-31.0,-19.0,-17.0,-45.0,-25.0,-33.0,0.0,0.0,0.0,0.0,0.0,0.0,0.0,0.0,0
-62.0,-58.0,-33.0,-9.0,-10.0,-29.0,-22.0,-35.0,0.0,0.0,0.0,0.0,0.0,0.0,0.0,0.0,0
-82.0,-54.0,-18.0,0.0,-12.0,-17.0,-25.0,-43.0,0.0,0.0,0.0,0.0,0.0,0.0,0.0,0.0,0
-75.0,-34.0,-11.0,-4.0,-24.0,-22.0,-34.0,-47.0,0.0,0.0,0.0,0.0,0.0,0.0,0.0,0.0,0
-46.0,-23.0,-3.0,-6.0,-31.0,-27.0,-37.0,-47.0,0.0,0.0,0.0,0.0,0.0,0.0,0.0,0.0,0
-30.0,-25.0,-14.0,-18.0,-38.0,-37.0,-53.0,-53.0,0.0,0.0,0.0,0.0,0.0,0.0,0.0,0.0,0
-26.0,-33.0,-21.0,-27.0,-42.0,-42.0,-53.0,-55.0,0.0,0.0,0.0,0.0,0.0,0.0,0.0,0.0,0
-38.0,-32.0,-26.0,-45.0,-44.0,-43.0,-41.0,-51.0,0.0,0.0,0.0,0.0,0.0,0.0,0.0,0.0,0
-33.0,-19.0,-31.0,-48.0,-47.0,-41.0,-24.0,-50.0,0.0,0.0,0.0,0.0,0.0,0.0,0.0,0.0,0
-5.0,-6.0,-35.0,-43.0,-43.0,-43.0,-5.0,-31.0,0.0,0.0,0.0,0.0,0.0,0.0,0.0,0.0,0
-8.0,-7.0,-48.0,-42.0,-40.0,-51.0,9.0,-15.0,0.0,0.0,0.0,0.0,0.0,0.0,0.0,0.0,0
-34.0,-19.0,-55.0,-43.0,-32.0,-54.0,12.0,-3.0,0.0,0.0,0.0,0.0,0.0,0.0,0.0,0.0,0
-45.0,-31.0,-53.0,-31.0,-18.0,-43.0,10.0,-4.0,0.0,0.0,0.0,0.0,0.0,0.0,0.0,0.0,0
-65.0,-40.0,-44.0,-26.0,-17.0,-31.0,-1.0,-17.0,0.0,0.0,0.0,0.0,0.0,0.0,0.0,0.0,0
-58.0,-25.0,-33.0,-13.0,-13.0,-24.0,-5.0,-25.0,0.0,0.0,0.0,0.0,0.0,0.0,0.0,0.0,0
-38.0,-15.0,-25.0,-12.0,-14.0,-20.0,-11.0,-26.0,0.0,0.0,0.0,0.0,0.0,0.0,0.0,0.0,0
-24.0,-20.0,-30.0,-6.0,-13.0,-22.0,-16.0,-24.0,0.0,0.0,0.0,0.0,0.0,0.0,0.0,0.0,0
-20.0,-23.0,-22.0,3.0,-17.0,-21.0,-21.0,-34.0,0.0,0.0,0.0,0.0,0.0,0.0,0.0,0.0,0
-25.0,-26.0,-24.0,-6.0,-33.0,-34.0,-38.0,-39.0,0.0,0.0,0.0,0.0,0.0,0.0,0.0,0.0,0
-36.0,-29.0,-31.0,-18.0,-47.0,-34.0,-56.0,-45.0,0.0,0.0,0.0,0.0,0.0,0.0,0.0,0.0,0
-35.0,-37.0,-48.0,-39.0,-54.0,-39.0,-72.0,-46.0,0.0,0.0,0.0,0.0,0.0,0.0,0.0,0.0,0
-32.0,-47.0,-70.0,-51.0,-66.0,-54.0,-92.0,-50.0,0.0,0.0,0.0,0.0,0.0,0.0,0.0,0.0,0
-38.0,-60.0,-78.0,-61.0,-85.0,-59.0,-111.0,-56.0,0.0,0.0,0.0,0.0,0.0,0.0,0.0,0.0,0
-36.0,-49.0,-73.0,-66.0,-86.0,-51.0,-86.0,-39.0,0.0,0.0,0.0,0.0,0.0,0.0,0.0,0.0,0
-37.0,-47.0,-68.0,-62.0,-79.0,-39.0,-44.0,-21.0,0.0,0.0,0.0,0.0,0.0,0.0,0.0,0.0,0
-46.0,-37.0,-58.0,-65.0,-81.0,-34.0,-31.0,-28.0,0.0,0.0,0.0,0.0,0.0,0.0,0.0,0.0,0
-23.0,-25.0,-56.0,-61.0,-78.0,-36.0,-30.0,-33.0,0.0,0.0,0.0,0.0,0.0,0.0,0.0,0.0,0
-28.0,-20.0,-53.0,-59.0,-62.0,-25.0,-27.0,-31.0,0.0,0.0,0.0,0.0,0.0,0.0,0.0,0.0,0
-18.0,-23.0,-51.0,-51.0,-45.0,-22.0,-25.0,-21.0,0.0,0.0,0.0,0.0,0.0,0.0,0.0,0.0,0
-9.0,-19.0,-37.0,-27.0,-28.0,-13.0,-22.0,-14.0,0.0,0.0,0.0,0.0,0.0,0.0,0.0,0.0,0
-18.0,-3.0,-32.0,-13.0,-5.0,-6.0,-18.0,-14.0,0.0,0.0,0.0,0.0,0.0,0.0,0.0,0.0,0
-26.0,2.0,-36.0,-6.0,8.0,-7.0,-13.0,-14.0,0.0,0.0,0.0,0.0,0.0,0.0,0.0,0.0,0
-33.0,-13.0,-25.0,7.0,22.0,-7.0,-10.0,-14.0,0.0,0.0,0.0,0.0,0.0,0.0,0.0,0.0,0
-49.0,-23.0,-17.0,12.0,27.0,-13.0,-6.0,-8.0,0.0,0.0,0.0,0.0,0.0,0.0,0.0,0.0,0
-39.0,-22.0,-21.0,6.0,11.0,-8.0,-15.0,-5.0,0.0,0.0,0.0,0.0,0.0,0.0,0.0,0.0,0
-36.0,-32.0,-28.0,-9.0,1.0,-9.0,-16.0,-2.0,0.0,0.0,0.0,0.0,0.0,0.0,0.0,0.0,0
-32.0,-40.0,-25.0,-19.0,-4.0,-18.0,-14.0,-6.0,0.0,0.0,0.0,0.0,0.0,0.0,0.0,0.0,0
-16.0,-38.0,-24.0,-20.0,-16.0,-21.0,-11.0,-18.0,0.0,0.0,0.0,0.0,0.0,0.0,0.0,0.0,0
-13.0,-45.0,-29.0,-30.0,-33.0,-27.0,-17.0,-14.0,0.0,0.0,0.0,0.0,0.0,0.0,0.0,0.0,0
-24.0,-50.0,-27.0,-40.0,-47.0,-34.0,-25.0,-25.0,0.0,0.0,0.0,0.0,0.0,0.0,0.0,0.0,0
-27.0,-60.0,-34.0,-55.0,-58.0,-35.0,-27.0,-34.0,0.0,0.0,0.0,0.0,0.0,0.0,0.0,0.0,0
-11.0,-60.0,-40.0,-64.0,-57.0,-32.0,-24.0,-43.0,0.0,0.0,0.0,0.0,0.0,0.0,0.0,0.0,0
-13.0,-55.0,-30.0,-64.0,-63.0,-37.0,-23.0,-42.0,0.0,0.0,0.0,0.0,0.0,0.0,0.0,0.0,0
-43.0,-51.0,-30.0,-67.0,-70.0,-43.0,-20.0,-39.0,0.0,0.0,0.0,0.0,0.0,0.0,0.0,0.0,0
-39.0,-50.0,-31.0,-67.0,-69.0,-45.0,-28.0,-39.0,0.0,0.0,0.0,0.0,0.0,0.0,0.0,0.0,0
-11.0,-44.0,-25.0,-65.0,-68.0,-34.0,-27.0,-41.0,0.0,0.0,0.0,0.0,0.0,0.0,0.0,0.0,0
7.0,-26.0,-25.0,-49.0,-62.0,-28.0,-31.0,-37.0,0.0,0.0,0.0,0.0,0.0,0.0,0.0,0.0,0
-5.0,-25.0,-30.0,-57.0,-69.0,-39.0,-34.0,-35.0,0.0,0.0,0.0,0.0,0.0,0.0,0.0,0.0,0
-32.0,-54.0,-50.0,-66.0,-61.0,-41.0,-36.0,-32.0,0.0,0.0,0.0,0.0,0.0,0.0,0.0,0.0,0
-28.0,-48.0,-47.0,-52.0,-53.0,-44.0,-37.0,-27.0,0.0,0.0,0.0,0.0,0.0,0.0,0.0,0.0,0
-28.0,-42.0,-35.0,-38.0,-49.0,-48.0,-37.0,-28.0,0.0,0.0,0.0,0.0,0.0,0.0,0.0,0.0,0
-29.0,-34.0,-33.0,-31.0,-44.0,-48.0,-43.0,-21.0,0.0,0.0,0.0,0.0,0.0,0.0,0.0,0.0,0
-40.0,-25.0,-37.0,-27.0,-38.0,-39.0,-43.0,-16.0,0.0,0.0,0.0,0.0,0.0,0.0,0.0,0.0,0
-48.0,-16.0,-33.0,-22.0,-33.0,-39.0,-42.0,-19.0,0.0,0.0,0.0,0.0,0.0,0.0,0.0,0.0,0
-46.0,-14.0,-34.0,-27.0,-33.0,-50.0,-40.0,-24.0,0.0,0.0,0.0,0.0,0.0,0.0,0.0,0.0,0
-38.0,-18.0,-36.0,-38.0,-36.0,-57.0,-42.0,-36.0,0.0,0.0,0.0,0.0,0.0,0.0,0.0,0.0,0
-29.0,-13.0,-35.0,-39.0,-29.0,-50.0,-48.0,-50.0,0.0,0.0,0.0,0.0,0.0,0.0,0.0,0.0,0
-21.0,-18.0,-32.0,-30.0,-21.0,-37.0,-49.0,-61.0,0.0,0.0,0.0,0.0,0.0,0.0,0.0,0.0,0
-19.0,-15.0,-23.0,-29.0,-22.0,-34.0,-48.0,-69.0,0.0,0.0,0.0,0.0,0.0,0.0,0.0,0.0,0
-36.0,-22.0,-21.0,-35.0,-22.0,-25.0,-35.0,-64.0,0.0,0.0,0.0,0.0,0.0,0.0,0.0,0.0,0
-43.0,-39.0,-22.0,-25.0,-10.0,-14.0,-21.0,-59.0,0.0,0.0,0.0,0.0,0.0,0.0,0.0,0.0,0
-50.0,-42.0,-10.0,-11.0,-2.0,-7.0,-1.0,-60.0,0.0,0.0,0.0,0.0,0.0,0.0,0.0,0.0,0
-61.0,-52.0,-29.0,-24.0,-22.0,-8.0,8.0,-47.0,0.0,0.0,0.0,0.0,0.0,0.0,0.0,0.0,0
-56.0,-53.0,-33.0,-21.0,-32.0,-20.0,11.0,-37.0,0.0,0.0,0.0,0.0,0.0,0.0,0.0,0.0,0
-26.0,-34.0,-13.0,-1.0,-19.0,-16.0,6.0,-38.0,0.0,0.0,0.0,0.0,0.0,0.0,0.0,0.0,0
-23.0,-38.0,-9.0,11.0,-3.0,-2.0,-1.0,-28.0,0.0,0.0,0.0,0.0,0.0,0.0,0.0,0.0,0
-52.0,-64.0,-30.0,5.0,2.0,2.0,-10.0,-37.0,0.0,0.0,0.0,0.0,0.0,0.0,0.0,0.0,0
-38.0,-43.0,-26.0,4.0,-5.0,-5.0,-33.0,-49.0,0.0,0.0,0.0,0.0,0.0,0.0,0.0,0.0,0
1.0,-6.0,-6.0,8.0,-9.0,-12.0,-44.0,-45.0,0.0,0.0,0.0,0.0,0.0,0.0,0.0,0.0,0
8.0,-15.0,-18.0,-1.0,-7.0,-13.0,-41.0,-27.0,0.0,0.0,0.0,0.0,0.0,0.0,0.0,0.0,0
-8.0,-16.0,-24.0,-11.0,-10.0,-26.0,-46.0,-17.0,0.0,0.0,0.0,0.0,0.0,0.0,0.0,0.0,0
-26.0,0.0,-7.0,-6.0,-9.0,-32.0,-39.0,-18.0,0.0,0.0,0.0,0.0,0.0,0.0,0.0,0.0,0
-15.0,-4.0,1.0,-6.0,-5.0,-29.0,-46.0,-18.0,0.0,0.0,0.0,0.0,0.0,0.0,0.0,0.0,0
-36.0,-33.0,-17.0,-21.0,-12.0,-31.0,-50.0,-19.0,0.0,0.0,0.0,0.0,0.0,0.0,0.0,0.0,0
-35.0,-31.0,-18.0,-23.0,-15.0,-34.0,-45.0,-18.0,0.0,0.0,0.0,0.0,0.0,0.0,0.0,0.0,0
-21.0,-22.0,-17.0,-43.0,-21.0,-48.0,-38.0,-25.0,0.0,0.0,0.0,0.0,0.0,0.0,0.0,0.0,0
-36.0,-29.0,-40.0,-60.0,-29.0,-52.0,-37.0,-40.0,0.0,0.0,0.0,0.0,0.0,0.0,0.0,0.0,0
-23.0,-35.0,-38.0,-56.0,-31.0,-58.0,-44.0,-42.0,0.0,0.0,0.0,0.0,0.0,0.0,0.0,0.0,0
-19.0,-35.0,-26.0,-60.0,-43.0,-59.0,-48.0,-44.0,0.0,0.0,0.0,0.0,0.0,0.0,0.0,0.0,0
-23.0,-49.0,-38.0,-60.0,-51.0,-53.0,-42.0,-48.0,0.0,0.0,0.0,0.0,0.0,0.0,0.0,0.0,0
-50.0,-80.0,-50.0,-58.0,-48.0,-47.0,-36.0,-54.0,0.0,0.0,0.0,0.0,0.0,0.0,0.0,0.0,0
-63.0,-86.0,-59.0,-59.0,-47.0,-42.0,-30.0,-64.0,0.0,0.0,0.0,0.0,0.0,0.0,0.0,0.0,0
-41.0,-63.0,-70.0,-72.0,-60.0,-38.0,-22.0,-69.0,0.0,0.0,0.0,0.0,0.0,0.0,0.0,0.0,0
-41.0,-78.0,-49.0,-56.0,-52.0,-30.0,-19.0,-46.0,0.0,0.0,0.0,0.0,0.0,0.0,0.0,0.0,0
-56.0,-88.0,-33.0,-43.0,-45.0,-23.0,-25.0,-52.0,0.0,0.0,0.0,0.0,0.0,0.0,0.0,0.0,0
-45.0,-60.0,-35.0,-46.0,-59.0,-26.0,-39.0,-67.0,0.0,0.0,0.0,0.0,0.0,0.0,0.0,0.0,0
-14.0,-16.0,-24.0,-52.0,-69.0,-30.0,-45.0,-45.0,0.0,0.0,0.0,0.0,0.0,0.0,0.0,0.0,0
7.0,2.0,-28.0,-60.0,-56.0,-35.0,-45.0,-26.0,0.0,0.0,0.0,0.0,0.0,0.0,0.0,0.0,0
11.0,4.0,-54.0,-67.0,-53.0,-29.0,-51.0,-22.0,0.0,0.0,0.0,0.0,0.0,0.0,0.0,0.0,0
4.0,-4.0,-67.0,-61.0,-53.0,-35.0,-44.0,-18.0,0.0,0.0,0.0,0.0,0.0,0.0,0.0,0.0,0
-11.0,-15.0,-60.0,-52.0,-55.0,-41.0,-42.0,-7.0,0.0,0.0,0.0,0.0,0.0,0.0,0.0,0.0,0
-12.0,-9.0,-56.0,-38.0,-38.0,-44.0,-57.0,-7.0,0.0,0.0,0.0,0.0,0.0,0.0,0.0,0.0,0
-42.0,-27.0,-59.0,-42.0,-31.0,-46.0,-55.0,-12.0,0.0,0.0,0.0,0.0,0.0,0.0,0.0,0.0,0
-76.0,-51.0,-59.0,-39.0,-29.0,-40.0,-38.0,-18.0,0.0,0.0,0.0,0.0,0.0,0.0,0.0,0.0,0
-55.0,-33.0,-26.0,0.0,-10.0,-28.0,-25.0,-15.0,0.0,0.0,0.0,0.0,0.0,0.0,0.0,0.0,0
-31.0,-11.0,14.0,19.0,3.0,-29.0,-21.0,-19.0,0.0,0.0,0.0,0.0,0.0,0.0,0.0,0.0,0
-14.0,-11.0,17.0,10.0,4.0,-32.0,-18.0,-26.0,0.0,0.0,0.0,0.0,0.0,0.0,0.0,0.0,0
-5.0,0.0,16.0,10.0,11.0,-18.0,-16.0,-37.0,0.0,0.0,0.0,0.0,0.0,0.0,0.0,0.0,0
-16.0,-1.0,11.0,3.0,10.0,-10.0,-2.0,-44.0,0.0,0.0,0.0,0.0,0.0,0.0,0.0,0.0,0
-40.0,-22.0,7.0,-4.0,2.0,-15.0,5.0,-44.0,0.0,0.0,0.0,0.0,0.0,0.0,0.0,0.0,0
-35.0,-32.0,8.0,-9.0,-10.0,-20.0,-9.0,-55.0,0.0,0.0,0.0,0.0,0.0,0.0,0.0,0.0,0
-29.0,-31.0,-15.0,-31.0,-26.0,-22.0,-10.0,-64.0,0.0,0.0,0.0,0.0,0.0,0.0,0.0,0.0,0
-41.0,-28.0,-44.0,-65.0,-44.0,-41.0,-18.0,-59.0,0.0,0.0,0.0,0.0,0.0,0.0,0.0,0.0,0
-70.0,-28.0,-50.0,-73.0,-58.0,-50.0,-31.0,-59.0,0.0,0.0,0.0,0.0,0.0,0.0,0.0,0.0,0
-66.0,-33.0,-45.0,-73.0,-62.0,-50.0,-43.0,-68.0,0.0,0.0,0.0,0.0,0.0,0.0,0.0,0.0,0
-69.0,-45.0,-52.0,-81.0,-64.0,-47.0,-50.0,-75.0,0.0,0.0,0.0,0.0,0.0,0.0,0.0,0.0,0
-58.0,-52.0,-59.0,-83.0,-72.0,-47.0,-51.0,-70.0,0.0,0.0,0.0,0.0,0.0,0.0,0.0,0.0,0
-32.0,-37.0,-54.0,-74.0,-68.0,-49.0,-35.0,-35.0,0.0,0.0,0.0,0.0,0.0,0.0,0.0,0.0,0
-17.0,-21.0,-48.0,-64.0,-56.0,-39.0,-17.0,-9.0,0.0,0.0,0.0,0.0,0.0,0.0,0.0,0.0,0
2.0,-8.0,-38.0,-53.0,-43.0,-38.0,-4.0,5.0,0.0,0.0,0.0,0.0,0.0,0.0,0.0,0.0,0
3.0,6.0,-37.0,-55.0,-41.0,-48.0,-8.0,15.0,0.0,0.0,0.0,0.0,0.0,0.0,0.0,0.0,0
7.0,32.0,-27.0,-56.0,-35.0,-47.0,-24.0,5.0,0.0,0.0,0.0,0.0,0.0,0.0,0.0,0.0,0
4.0,43.0,-31.0,-50.0,-38.0,-52.0,-33.0,-6.0,0.0,0.0,0.0,0.0,0.0,0.0,0.0,0.0,0
-35.0,-3.0,-49.0,-60.0,-40.0,-51.0,-32.0,-23.0,0.0,0.0,0.0,0.0,0.0,0.0,0.0,0.0,0
-33.0,-26.0,-32.0,-38.0,-29.0,-49.0,-42.0,-34.0,0.0,0.0,0.0,0.0,0.0,0.0,0.0,0.0,0
-21.0,-20.0,-15.0,-22.0,-21.0,-48.0,-44.0,-43.0,0.0,0.0,0.0,0.0,0.0,0.0,0.0,0.0,0
-44.0,-41.0,-18.0,-17.0,-13.0,-41.0,-43.0,-55.0,0.0,0.0,0.0,0.0,0.0,0.0,0.0,0.0,0
-61.0,-57.0,-16.0,-20.0,-14.0,-38.0,-37.0,-66.0,0.0,0.0,0.0,0.0,0.0,0.0,0.0,0.0,0
-54.0,-64.0,-3.0,-18.0,-14.0,-38.0,-37.0,-66.0,0.0,0.0,0.0,0.0,0.0,0.0,0.0,0.0,0
-68.0,-110.0,-16.0,-27.0,-29.0,-47.0,-35.0,-61.0,0.0,0.0,0.0,0.0,0.0,0.0,0.0,0.0,0
-64.0,-144.0,-29.0,-19.0,-30.0,-42.0,-33.0,-64.0,0.0,0.0,0.0,0.0,0.0,0.0,0.0,0.0,0
-65.0,-118.0,-24.0,-20.0,-35.0,-34.0,-28.0,-64.0,0.0,0.0,0.0,0.0,0.0,0.0,0.0,0.0,0
-43.0,-78.0,-28.0,-30.0,-56.0,-38.0,-24.0,-63.0,0.0,0.0,0.0,0.0,0.0,0.0,0.0,0.0,0
-32.0,-38.0,-32.0,-32.0,-65.0,-50.0,-32.0,-57.0,0.0,0.0,0.0,0.0,0.0,0.0,0.0,0.0,0
-33.0,-23.0,-31.0,-24.0,-61.0,-50.0,-36.0,-64.0,0.0,0.0,0.0,0.0,0.0,0.0,0.0,0.0,0
-19.0,-15.0,-32.0,-17.0,-44.0,-40.0,-35.0,-67.0,0.0,0.0,0.0,0.0,0.0,0.0,0.0,0.0,0
-14.0,-12.0,-26.0,-2.0,-27.0,-40.0,-40.0,-64.0,0.0,0.0,0.0,0.0,0.0,0.0,0.0,0.0,0
-15.0,-31.0,-30.0,1.0,-26.0,-43.0,-41.0,-48.0,0.0,0.0,0.0,0.0,0.0,0.0,0.0,0.0,0
2.0,-36.0,-35.0,-7.0,-31.0,-41.0,-41.0,-34.0,0.0,0.0,0.0,0.0,0.0,0.0,0.0,0.0,0
7.0,-19.0,-32.0,-12.0,-29.0,-34.0,-42.0,-23.0,0.0,0.0,0.0,0.0,0.0,0.0,0.0,0.0,0
-30.0,-31.0,-40.0,-21.0,-30.0,-39.0,-42.0,-26.0,0.0,0.0,0.0,0.0,0.0,0.0,0.0,0.0,0
-42.0,-47.0,-44.0,-39.0,-45.0,-42.0,-42.0,-10.0,0.0,0.0,0.0,0.0,0.0,0.0,0.0,0.0,0
-46.0,-49.0,-55.0,-49.0,-55.0,-39.0,-40.0,-3.0,0.0,0.0,0.0,0.0,0.0,0.0,0.0,0.0,0
-72.0,-57.0,-61.0,-39.0,-39.0,-33.0,-42.0,-4.0,0.0,0.0,0.0,0.0,0.0,0.0,0.0,0.0,0
-66.0,-62.0,-64.0,-34.0,-13.0,-25.0,-42.0,-12.0,0.0,0.0,0.0,0.0,0.0,0.0,0.0,0.0,0
-55.0,-52.0,-54.0,-30.0,-8.0,-24.0,-42.0,-20.0,0.0,0.0,0.0,0.0,0.0,0.0,0.0,0.0,0
-6.0,-18.0,-47.0,-32.0,-12.0,-24.0,-37.0,-34.0,0.0,0.0,0.0,0.0,0.0,0.0,0.0,0.0,0
19.0,9.0,-55.0,-47.0,-14.0,-31.0,-39.0,-43.0,0.0,0.0,0.0,0.0,0.0,0.0,0.0,0.0,0
-3.0,0.0,-59.0,-49.0,-14.0,-44.0,-40.0,-50.0,0.0,0.0,0.0,0.0,0.0,0.0,0.0,0.0,0
-1.0,-10.0,-31.0,-15.0,-14.0,-40.0,-35.0,-50.0,0.0,0.0,0.0,0.0,0.0,0.0,0.0,0.0,0
-10.0,-10.0,-10.0,4.0,-18.0,-35.0,-29.0,-50.0,0.0,0.0,0.0,0.0,0.0,0.0,0.0,0.0,0
-7.0,1.0,7.0,8.0,-21.0,-33.0,-34.0,-42.0,0.0,0.0,0.0,0.0,0.0,0.0,0.0,0.0,0
-1.0,19.0,11.0,4.0,-34.0,-31.0,-31.0,-38.0,0.0,0.0,0.0,0.0,0.0,0.0,0.0,0.0,0
-16.0,8.0,-9.0,-19.0,-48.0,-41.0,-32.0,-45.0,0.0,0.0,0.0,0.0,0.0,0.0,0.0,0.0,0
-26.0,-29.0,-37.0,-40.0,-59.0,-51.0,-38.0,-41.0,0.0,0.0,0.0,0.0,0.0,0.0,0.0,0.0,0
-38.0,-60.0,-71.0,-48.0,-64.0,-53.0,-54.0,-43.0,0.0,0.0,0.0,0.0,0.0,0.0,0.0,0.0,0
-37.0,-70.0,-69.0,-54.0,-61.0,-51.0,-75.0,-48.0,0.0,0.0,0.0,0.0,0.0,0.0,0.0,0.0,0
-30.0,-63.0,-61.0,-55.0,-54.0,-41.0,-72.0,-46.0,0.0,0.0,0.0,0.0,0.0,0.0,0.0,0.0,0
-22.0,-49.0,-62.0,-49.0,-51.0,-34.0,-60.0,-37.0,0.0,0.0,0.0,0.0,0.0,0.0,0.0,0.0,0
-27.0,-53.0,-61.0,-53.0,-50.0,-40.0,-48.0,-26.0,0.0,0.0,0.0,0.0,0.0,0.0,0.0,0.0,0
-46.0,-58.0,-73.0,-58.0,-56.0,-42.0,-33.0,-13.0,0.0,0.0,0.0,0.0,0.0,0.0,0.0,0.0,0
-50.0,-51.0,-60.0,-67.0,-51.0,-33.0,-4.0,14.0,0.0,0.0,0.0,0.0,0.0,0.0,0.0,0.0,0
-40.0,-34.0,-47.0,-77.0,-51.0,-39.0,8.0,32.0,0.0,0.0,0.0,0.0,0.0,0.0,0.0,0.0,0
-64.0,-16.0,-33.0,-64.0,-61.0,-42.0,1.0,28.0,0.0,0.0,0.0,0.0,0.0,0.0,0.0,0.0,0
-78.0,-14.0,-27.0,-47.0,-50.0,-33.0,-16.0,11.0,0.0,0.0,0.0,0.0,0.0,0.0,0.0,0.0,0
-73.0,-34.0,-28.0,-40.0,-29.0,-30.0,-31.0,-14.0,0.0,0.0,0.0,0.0,0.0,0.0,0.0,0.0,0
-53.0,-52.0,-25.0,-35.0,-23.0,-21.0,-35.0,-41.0,0.0,0.0,0.0,0.0,0.0,0.0,0.0,0.0,0
-55.0,-57.0,-31.0,-41.0,-25.0,-21.0,-36.0,-56.0,0.0,0.0,0.0,0.0,0.0,0.0,0.0,0.0,0
-59.0,-48.0,-27.0,-38.0,-23.0,-26.0,-39.0,-49.0,0.0,0.0,0.0,0.0,0.0,0.0,0.0,0.0,0
-61.0,-41.0,-17.0,-37.0,-29.0,-34.0,-36.0,-39.0,0.0,0.0,0.0,0.0,0.0,0.0,0.0,0.0,0
-39.0,-53.0,-20.0,-33.0,-35.0,-38.0,-36.0,-34.0,0.0,0.0,0.0,0.0,0.0,0.0,0.0,0.0,0
-32.0,-65.0,-26.0,-10.0,-36.0,-36.0,-35.0,-43.0,0.0,0.0,0.0,0.0,0.0,0.0,0.0,0.0,0
-36.0,-48.0,-14.0,-2.0,-36.0,-32.0,-40.0,-51.0,0.0,0.0,0.0,0.0,0.0,0.0,0.0,0.0,0
-52.0,-29.0,0.0,16.0,-33.0,-37.0,-46.0,-47.0,0.0,0.0,0.0,0.0,0.0,0.0,0.0,0.0,0
-51.0,-29.0,-2.0,24.0,-30.0,-40.0,-44.0,-49.0,0.0,0.0,0.0,0.0,0.0,0.0,0.0,0.0,0
-37.0,-39.0,-17.0,14.0,-24.0,-38.0,-47.0,-43.0,0.0,0.0,0.0,0.0,0.0,0.0,0.0,0.0,0
-29.0,-43.0,-19.0,21.0,-23.0,-36.0,-42.0,-33.0,0.0,0.0,0.0,0.0,0.0,0.0,0.0,0.0,0
-30.0,-30.0,-11.0,16.0,-16.0,-36.0,-41.0,-21.0,0.0,0.0,0.0,0.0,0.0,0.0,0.0,0.0,0
-28.0,-33.0,-10.0,3.0,-15.0,-36.0,-40.0,-22.0,0.0,0.0,0.0,0.0,0.0,0.0,0.0,0.0,0
-29.0,-38.0,-30.0,-12.0,-16.0,-29.0,-47.0,-28.0,0.0,0.0,0.0,0.0,0.0,0.0,0.0,0.0,0
-29.0,-43.0,-34.0,-31.0,-17.0,-28.0,-53.0,-22.0,0.0,0.0,0.0,0.0,0.0,0.0,0.0,0.0,0
-10.0,-25.0,-29.0,-40.0,-17.0,-31.0,-50.0,-17.0,0.0,0.0,0.0,0.0,0.0,0.0,0.0,0.0,0
17.0,23.0,-10.0,-47.0,-22.0,-39.0,-40.0,-14.0,0.0,0.0,0.0,0.0,0.0,0.0,0.0,0.0,0
-8.0,15.0,-10.0,-60.0,-37.0,-42.0,-31.0,-13.0,0.0,0.0,0.0,0.0,0.0,0.0,0.0,0.0,0
-57.0,-32.0,-43.0,-64.0,-43.0,-39.0,-38.0,-18.0,0.0,0.0,0.0,0.0,0.0,0.0,0.0,0.0,0
-45.0,-25.0,-31.0,-38.0,-26.0,-36.0,-36.0,-26.0,0.0,0.0,0.0,0.0,0.0,0.0,0.0,0.0,0
-22.0,-13.0,-26.0,-21.0,-20.0,-25.0,-24.0,-23.0,0.0,0.0,0.0,0.0,0.0,0.0,0.0,0.0,0
2.0,1.0,-8.0,4.0,2.0,-9.0,-14.0,-23.0,0.0,0.0,0.0,0.0,0.0,0.0,0.0,0.0,0
-4.0,-12.0,-1.0,16.0,-1.0,-12.0,-7.0,-32.0,0.0,0.0,0.0,0.0,0.0,0.0,0.0,0.0,0
-44.0,-29.0,-3.0,14.0,-9.0,-16.0,-3.0,-37.0,0.0,0.0,0.0,0.0,0.0,0.0,0.0,0.0,0
-51.0,-29.0,-16.0,-1.0,-19.0,-21.0,-5.0,-49.0,0.0,0.0,0.0,0.0,0.0,0.0,0.0,0.0,0
-35.0,-34.0,-25.0,-7.0,-33.0,-34.0,-22.0,-49.0,0.0,0.0,0.0,0.0,0.0,0.0,0.0,0.0,0
-26.0,-39.0,-22.0,-1.0,-39.0,-43.0,-23.0,-59.0,0.0,0.0,0.0,0.0,0.0,0.0,0.0,0.0,0
-35.0,-35.0,-28.0,-17.0,-58.0,-47.0,-26.0,-53.0,0.0,0.0,0.0,0.0,0.0,0.0,0.0,0.0,0
-15.0,-38.0,-31.0,-30.0,-60.0,-42.0,-34.0,-46.0,0.0,0.0,0.0,0.0,0.0,0.0,0.0,0.0,0
-3.0,-31.0,-27.0,-33.0,-56.0,-41.0,-36.0,-40.0,0.0,0.0,0.0,0.0,0.0,0.0,0.0,0.0,0
-34.0,-37.0,-34.0,-31.0,-60.0,-43.0,-37.0,-36.0,0.0,0.0,0.0,0.0,0.0,0.0,0.0,0.0,0
-54.0,-34.0,-36.0,-43.0,-64.0,-41.0,-40.0,-43.0,0.0,0.0,0.0,0.0,0.0,0.0,0.0,0.0,0
-9.0,-21.0,-34.0,-47.0,-62.0,-37.0,-44.0,-39.0,0.0,0.0,0.0,0.0,0.0,0.0,0.0,0.0,0
4.0,-26.0,-50.0,-56.0,-59.0,-39.0,-46.0,-31.0,0.0,0.0,0.0,0.0,0.0,0.0,0.0,0.0,0
-17.0,-30.0,-54.0,-55.0,-52.0,-33.0,-42.0,-26.0,0.0,0.0,0.0,0.0,0.0,0.0,0.0,0.0,0
-36.0,-28.0,-40.0,-55.0,-39.0,-25.0,-42.0,-21.0,0.0,0.0,0.0,0.0,0.0,0.0,0.0,0.0,0
-24.0,-13.0,-35.0,-46.0,-27.0,-28.0,-40.0,-18.0,0.0,0.0,0.0,0.0,0.0,0.0,0.0,0.0,0
-12.0,2.0,-20.0,-47.0,-25.0,-34.0,-31.0,-12.0,0.0,0.0,0.0,0.0,0.0,0.0,0.0,0.0,0
-17.0,0.0,-27.0,-53.0,-23.0,-31.0,-26.0,-7.0,0.0,0.0,0.0,0.0,0.0,0.0,0.0,0.0,0
-50.0,-24.0,-36.0,-65.0,-32.0,-24.0,-32.0,-18.0,0.0,0.0,0.0,0.0,0.0,0.0,0.0,0.0,0
-83.0,-63.0,-62.0,-71.0,-35.0,-31.0,-29.0,-32.0,0.0,0.0,0.0,0.0,0.0,0.0,0.0,0.0,0
-81.0,-79.0,-59.0,-60.0,-26.0,-33.0,-26.0,-39.0,0.0,0.0,0.0,0.0,0.0,0.0,0.0,0.0,0
-53.0,-72.0,-40.0,-57.0,-23.0,-35.0,-17.0,-39.0,0.0,0.0,0.0,0.0,0.0,0.0,0.0,0.0,0
-41.0,-57.0,-34.0,-53.0,-23.0,-32.0,-13.0,-31.0,0.0,0.0,0.0,0.0,0.0,0.0,0.0,0.0,0
-17.0,-40.0,-33.0,-42.0,-19.0,-26.0,-14.0,-38.0,0.0,0.0,0.0,0.0,0.0,0.0,0.0,0.0,0
-13.0,-30.0,-28.0,-36.0,-14.0,-29.0,-16.0,-43.0,0.0,0.0,0.0,0.0,0.0,0.0,0.0,0.0,0
-18.0,-19.0,-17.0,-30.0,-10.0,-32.0,-18.0,-43.0,0.0,0.0,0.0,0.0,0.0,0.0,0.0,0.0,0
-30.0,-30.0,-25.0,-32.0,-16.0,-40.0,-18.0,-43.0,0.0,0.0,0.0,0.0,0.0,0.0,0.0,0.0,0
-26.0,-43.0,-19.0,-33.0,-19.0,-30.0,-25.0,-40.0,0.0,0.0,0.0,0.0,0.0,0.0,0.0,0.0,0
-21.0,-45.0,-9.0,-36.0,-27.0,-29.0,-33.0,-40.0,0.0,0.0,0.0,0.0,0.0,0.0,0.0,0.0,0
-33.0,-56.0,-36.0,-46.0,-40.0,-40.0,-37.0,-41.0,0.0,0.0,0.0,0.0,0.0,0.0,0.0,0.0,0
-25.0,-65.0,-42.0,-40.0,-37.0,-36.0,-42.0,-38.0,0.0,0.0,0.0,0.0,0.0,0.0,0.0,0.0,0
-9.0,-68.0,-23.0,-26.0,-20.0,-30.0,-46.0,-28.0,0.0,0.0,0.0,0.0,0.0,0.0,0.0,0.0,0
2.0,-50.0,-1.0,-10.0,-22.0,-30.0,-53.0,-28.0,0.0,0.0,0.0,0.0,0.0,0.0,0.0,0.0,0
-10.0,-21.0,3.0,-4.0,-18.0,-32.0,-47.0,-25.0,0.0,0.0,0.0,0.0,0.0,0.0,0.0,0.0,0
-13.0,12.0,5.0,-14.0,-21.0,-30.0,-32.0,-12.0,0.0,0.0,0.0,0.0,0.0,0.0,0.0,0.0,0
-26.0,13.0,-14.0,-44.0,-33.0,-36.0,-27.0,-7.0,0.0,0.0,0.0,0.0,0.0,0.0,0.0,0.0,0
-35.0,13.0,-45.0,-61.0,-44.0,-46.0,-30.0,-20.0,0.0,0.0,0.0,0.0,0.0,0.0,0.0,0.0,0
-40.0,5.0,-53.0,-67.0,-46.0,-51.0,-41.0,-30.0,0.0,0.0,0.0,0.0,0.0,0.0,0.0,0.0,0
-24.0,-27.0,-48.0,-57.0,-45.0,-48.0,-41.0,-32.0,0.0,0.0,0.0,0.0,0.0,0.0,0.0,0.0,0
-16.0,-42.0,-32.0,-43.0,-43.0,-39.0,-28.0,-33.0,0.0,0.0,0.0,0.0,0.0,0.0,0.0,0.0,0
-40.0,-89.0,-17.0,-49.0,-46.0,-43.0,-18.0,-39.0,0.0,0.0,0.0,0.0,0.0,0.0,0.0,0.0,0
-61.0,-116.0,-22.0,-47.0,-50.0,-38.0,-7.0,-37.0,0.0,0.0,0.0,0.0,0.0,0.0,0.0,0.0,0
-41.0,-69.0,-16.0,-43.0,-55.0,-35.0,-5.0,-35.0,0.0,0.0,0.0,0.0,0.0,0.0,0.0,0.0,0
-43.0,-36.0,-20.0,-40.0,-59.0,-36.0,-7.0,-38.0,0.0,0.0,0.0,0.0,0.0,0.0,0.0,0.0,0
-50.0,-39.0,-34.0,-43.0,-60.0,-33.0,-17.0,-42.0,0.0,0.0,0.0,0.0,0.0,0.0,0.0,0.0,0
-55.0,-42.0,-59.0,-45.0,-64.0,-30.0,-21.0,-55.0,0.0,0.0,0.0,0.0,0.0,0.0,0.0,0.0,0
-56.0,-25.0,-57.0,-38.0,-51.0,-25.0,-16.0,-56.0,0.0,0.0,0.0,0.0,0.0,0.0,0.0,0.0,0
-31.0,-28.0,-42.0,-21.0,-38.0,-16.0,-16.0,-40.0,0.0,0.0,0.0,0.0,0.0,0.0,0.0,0.0,0
-28.0,-42.0,-28.0,-11.0,-29.0,-18.0,-21.0,-30.0,0.0,0.0,0.0,0.0,0.0,0.0,0.0,0.0,0
-50.0,-64.0,-35.0,-22.0,-36.0,-23.0,-31.0,-34.0,0.0,0.0,0.0,0.0,0.0,0.0,0.0,0.0,0
-65.0,-57.0,-40.0,-35.0,-47.0,-26.0,-41.0,-40.0,0.0,0.0,0.0,0.0,0.0,0.0,0.0,0.0,0
-16.0,-27.0,-35.0,-35.0,-42.0,-30.0,-47.0,-37.0,0.0,0.0,0.0,0.0,0.0,0.0,0.0,0.0,0
-13.0,-21.0,-49.0,-46.0,-36.0,-35.0,-49.0,-28.0,0.0,0.0,0.0,0.0,0.0,0.0,0.0,0.0,0
-39.0,-43.0,-50.0,-31.0,-23.0,-21.0,-49.0,-25.0,0.0,0.0,0.0,0.0,0.0,0.0,0.0,0.0,0
-50.0,-37.0,-25.0,-12.0,-8.0,-13.0,-48.0,-24.0,0.0,0.0,0.0,0.0,0.0,0.0,0.0,0.0,0
-26.0,-10.0,-19.0,-17.0,-26.0,-23.0,-41.0,-18.0,0.0,0.0,0.0,0.0,0.0,0.0,0.0,0.0,0
-23.0,1.0,-15.0,-36.0,-47.0,-27.0,-44.0,-17.0,0.0,0.0,0.0,0.0,0.0,0.0,0.0,0.0,0
-41.0,-25.0,-28.0,-59.0,-56.0,-29.0,-38.0,-17.0,0.0,0.0,0.0,0.0,0.0,0.0,0.0,0.0,0
-45.0,-58.0,-43.0,-61.0,-48.0,-32.0,-38.0,-19.0,0.0,0.0,0.0,0.0,0.0,0.0,0.0,0.0,0
-43.0,-76.0,-43.0,-55.0,-43.0,-33.0,-30.0,-28.0,0.0,0.0,0.0,0.0,0.0,0.0,0.0,0.0,0
-26.0,-70.0,-40.0,-46.0,-43.0,-39.0,-22.0,-34.0,0.0,0.0,0.0,0.0,0.0,0.0,0.0,0.0,0
-16.0,-53.0,-30.0,-38.0,-47.0,-39.0,-19.0,-22.0,0.0,0.0,0.0,0.0,0.0,0.0,0.0,0.0,0
-44.0,-41.0,-20.0,-45.0,-43.0,-33.0,-18.0,-17.0,0.0,0.0,0.0,0.0,0.0,0.0,0.0,0.0,0
-40.0,-37.0,-23.0,-56.0,-50.0,-39.0,-24.0,-25.0,0.0,0.0,0.0,0.0,0.0,0.0,0.0,0.0,0
-33.0,-46.0,-43.0,-68.0,-57.0,-48.0,-35.0,-32.0,0.0,0.0,0.0,0.0,0.0,0.0,0.0,0.0,0
-56.0,-49.0,-50.0,-64.0,-58.0,-47.0,-40.0,-41.0,0.0,0.0,0.0,0.0,0.0,0.0,0.0,0.0,0
-74.0,-32.0,-39.0,-45.0,-42.0,-52.0,-39.0,-37.0,0.0,0.0,0.0,0.0,0.0,0.0,0.0,0.0,0
-71.0,-24.0,-20.0,-17.0,-25.0,-45.0,-39.0,-38.0,0.0,0.0,0.0,0.0,0.0,0.0,0.0,0.0,0
-43.0,-31.0,-5.0,22.0,-8.0,-40.0,-38.0,-31.0,0.0,0.0,0.0,0.0,0.0,0.0,0.0,0.0,0
-40.0,-35.0,-1.0,30.0,-5.0,-38.0,-38.0,-30.0,0.0,0.0,0.0,0.0,0.0,0.0,0.0,0.0,0
-51.0,-44.0,-11.0,18.0,-3.0,-19.0,-49.0,-21.0,0.0,0.0,0.0,0.0,0.0,0.0,0.0,0.0,0
-39.0,-35.0,0.0,25.0,10.0,-11.0,-45.0,-22.0,0.0,0.0,0.0,0.0,0.0,0.0,0.0,0.0,0
-22.0,-34.0,8.0,27.0,20.0,-11.0,-43.0,-22.0,0.0,0.0,0.0,0.0,0.0,0.0,0.0,0.0,0
-29.0,-37.0,1.0,2.0,6.0,-16.0,-36.0,-14.0,0.0,0.0,0.0,0.0,0.0,0.0,0.0,0.0,0
-26.0,-39.0,2.0,-18.0,-5.0,-22.0,-32.0,-12.0,0.0,0.0,0.0,0.0,0.0,0.0,0.0,0.0,0
-26.0,-39.0,2.0,-31.0,-5.0,-25.0,-38.0,-7.0,0.0,0.0,0.0,0.0,0.0,0.0,0.0,0.0,0
-31.0,-36.0,-22.0,-51.0,-25.0,-27.0,-33.0,-8.0,0.0,0.0,0.0,0.0,0.0,0.0,0.0,0.0,0
-30.0,-40.0,-43.0,-66.0,-35.0,-21.0,-32.0,-7.0,0.0,0.0,0.0,0.0,0.0,0.0,0.0,0.0,0
-12.0,-41.0,-55.0,-80.0,-45.0,-26.0,-27.0,-11.0,0.0,0.0,0.0,0.0,0.0,0.0,0.0,0.0,0
-7.0,-29.0,-63.0,-91.0,-58.0,-29.0,-26.0,-24.0,0.0,0.0,0.0,0.0,0.0,0.0,0.0,0.0,0
-4.0,-27.0,-76.0,-95.0,-60.0,-40.0,-24.0,-33.0,0.0,0.0,0.0,0.0,0.0,0.0,0.0,0.0,0
-12.0,-22.0,-79.0,-99.0,-55.0,-51.0,-26.0,-41.0,0.0,0.0,0.0,0.0,0.0,0.0,0.0,0.0,0
-16.0,-25.0,-77.0,-90.0,-58.0,-43.0,-28.0,-52.0,0.0,0.0,0.0,0.0,0.0,0.0,0.0,0.0,0
-28.0,-41.0,-73.0,-80.0,-55.0,-46.0,-24.0,-55.0,0.0,0.0,0.0,0.0,0.0,0.0,0.0,0.0,0
-43.0,-65.0,-68.0,-52.0,-43.0,-48.0,-25.0,-54.0,0.0,0.0,0.0,0.0,0.0,0.0,0.0,0.0,0
-48.0,-70.0,-62.0,-35.0,-31.0,-45.0,-24.0,-45.0,0.0,0.0,0.0,0.0,0.0,0.0,0.0,0.0,0
-55.0,-58.0,-58.0,-35.0,-35.0,-47.0,-23.0,-38.0,0.0,0.0,0.0,0.0,0.0,0.0,0.0,0.0,0
-75.0,-56.0,-59.0,-44.0,-36.0,-54.0,-31.0,-52.0,0.0,0.0,0.0,0.0,0.0,0.0,0.0,0.0,0
-61.0,-51.0,-53.0,-32.0,-26.0,-53.0,-31.0,-47.0,0.0,0.0,0.0,0.0,0.0,0.0,0.0,0.0,0
-37.0,-35.0,-39.0,-11.0,-12.0,-44.0,-27.0,-30.0,0.0,0.0,0.0,0.0,0.0,0.0,0.0,0.0,0
-36.0,-9.0,-20.0,16.0,7.0,-34.0,-22.0,-30.0,0.0,0.0,0.0,0.0,0.0,0.0,0.0,0.0,0
1.0,9.0,-11.0,26.0,15.0,-26.0,-25.0,-36.0,0.0,0.0,0.0,0.0,0.0,0.0,0.0,0.0,0
23.0,19.0,-7.0,13.0,10.0,-34.0,-34.0,-35.0,0.0,0.0,0.0,0.0,0.0,0.0,0.0,0.0,0
-7.0,-8.0,-27.0,-10.0,5.0,-36.0,-39.0,-30.0,0.0,0.0,0.0,0.0,0.0,0.0,0.0,0.0,0
-15.0,-25.0,-38.0,-22.0,-4.0,-42.0,-56.0,-29.0,0.0,0.0,0.0,0.0,0.0,0.0,0.0,0.0,0
-16.0,-26.0,-39.0,-42.0,-16.0,-45.0,-62.0,-37.0,0.0,0.0,0.0,0.0,0.0,0.0,0.0,0.0,0
-36.0,-36.0,-34.0,-57.0,-31.0,-43.0,-42.0,-24.0,0.0,0.0,0.0,0.0,0.0,0.0,0.0,0.0,0
-52.0,-37.0,-30.0,-57.0,-35.0,-41.0,-29.0,-13.0,0.0,0.0,0.0,0.0,0.0,0.0,0.0,0.0,0
-34.0,-44.0,-33.0,-55.0,-39.0,-36.0,-11.0,-11.0,0.0,0.0,0.0,0.0,0.0,0.0,0.0,0.0,0
-39.0,-82.0,-61.0,-68.0,-51.0,-48.0,2.0,-17.0,0.0,0.0,0.0,0.0,0.0,0.0,0.0,0.0,0
-25.0,-83.0,-67.0,-69.0,-70.0,-65.0,-3.0,-27.0,0.0,0.0,0.0,0.0,0.0,0.0,0.0,0.0,0
-8.0,-47.0,-57.0,-61.0,-78.0,-64.0,-12.0,-26.0,0.0,0.0,0.0,0.0,0.0,0.0,0.0,0.0,0
-68.0,-66.0,-75.0,-61.0,-70.0,-58.0,-20.0,-34.0,0.0,0.0,0.0,0.0,0.0,0.0,0.0,0.0,0
-83.0,-77.0,-72.0,-45.0,-58.0,-51.0,-22.0,-51.0,0.0,0.0,0.0,0.0,0.0,0.0,0.0,0.0,0
-55.0,-49.0,-40.0,-17.0,-51.0,-46.0,-28.0,-62.0,0.0,0.0,0.0,0.0,0.0,0.0,0.0,0.0,0
-48.0,-25.0,-22.0,3.0,-41.0,-45.0,-42.0,-61.0,0.0,0.0,0.0,0.0,0.0,0.0,0.0,0.0,0
-68.0,-20.0,-25.0,6.0,-36.0,-42.0,-35.0,-43.0,0.0,0.0,0.0,0.0,0.0,0.0,0.0,0.0,0
-61.0,-17.0,-35.0,1.0,-36.0,-41.0,-30.0,-37.0,0.0,0.0,0.0,0.0,0.0,0.0,0.0,0.0,0
-53.0,-18.0,-33.0,3.0,-38.0,-41.0,-38.0,-38.0,0.0,0.0,0.0,0.0,0.0,0.0,0.0,0.0,0
-50.0,-18.0,-32.0,3.0,-23.0,-47.0,-39.0,-38.0,0.0,0.0,0.0,0.0,0.0,0.0,0.0,0.0,0
-40.0,-7.0,-24.0,9.0,-22.0,-38.0,-43.0,-25.0,0.0,0.0,0.0,0.0,0.0,0.0,0.0,0.0,0
-23.0,-10.0,-23.0,0.0,-17.0,-37.0,-51.0,-14.0,0.0,0.0,0.0,0.0,0.0,0.0,0.0,0.0,0
-24.0,-25.0,-31.0,-16.0,-16.0,-26.0,-56.0,-10.0,0.0,0.0,0.0,0.0,0.0,0.0,0.0,0.0,0
-49.0,-34.0,-35.0,-30.0,-17.0,-27.0,-58.0,-15.0,0.0,0.0,0.0,0.0,0.0,0.0,0.0,0.0,0
-41.0,-42.0,-46.0,-45.0,-26.0,-35.0,-55.0,-21.0,0.0,0.0,0.0,0.0,0.0,0.0,0.0,0.0,0
-16.0,-32.0,-41.0,-49.0,-30.0,-23.0,-42.0,-22.0,0.0,0.0,0.0,0.0,0.0,0.0,0.0,0.0,0
5.0,-22.0,-22.0,-46.0,-29.0,-12.0,-34.0,-10.0,0.0,0.0,0.0,0.0,0.0,0.0,0.0,0.0,0
-27.0,-8.0,-9.0,-43.0,-41.0,-14.0,-37.0,-11.0,0.0,0.0,0.0,0.0,0.0,0.0,0.0,0.0,0
-32.0,8.0,-1.0,-41.0,-50.0,-17.0,-33.0,-16.0,0.0,0.0,0.0,0.0,0.0,0.0,0.0,0.0,0
14.0,32.0,14.0,-31.0,-47.0,-10.0,-30.0,-7.0,0.0,0.0,0.0,0.0,0.0,0.0,0.0,0.0,0
23.0,20.0,5.0,-32.0,-44.0,-4.0,-28.0,-16.0,0.0,0.0,0.0,0.0,0.0,0.0,0.0,0.0,0
14.0,-9.0,-15.0,-35.0,-47.0,-10.0,-24.0,-33.0,0.0,0.0,0.0,0.0,0.0,0.0,0.0,0.0,0
-22.0,-32.0,-58.0,-62.0,-73.0,-20.0,-28.0,-47.0,0.0,0.0,0.0,0.0,0.0,0.0,0.0,0.0,0
-23.0,-41.0,-70.0,-62.0,-86.0,-33.0,-29.0,-43.0,0.0,0.0,0.0,0.0,0.0,0.0,0.0,0.0,0
-17.0,-20.0,-52.0,-59.0,-83.0,-31.0,-21.0,-45.0,0.0,0.0,0.0,0.0,0.0,0.0,0.0,0.0,0
-41.0,-14.0,-44.0,-49.0,-76.0,-33.0,-22.0,-41.0,0.0,0.0,0.0,0.0,0.0,0.0,0.0,0.0,0
-66.0,-34.0,-38.0,-33.0,-64.0,-40.0,-17.0,-40.0,0.0,0.0,0.0,0.0,0.0,0.0,0.0,0.0,0
-56.0,-39.0,-34.0,-24.0,-51.0,-45.0,-30.0,-38.0,0.0,0.0,0.0,0.0,0.0,0.0,0.0,0.0,0
-44.0,-30.0,-25.0,-27.0,-38.0,-37.0,-49.0,-55.0,0.0,0.0,0.0,0.0,0.0,0.0,0.0,0.0,0
-52.0,-42.0,-28.0,-37.0,-22.0,-34.0,-70.0,-81.0,0.0,0.0,0.0,0.0,0.0,0.0,0.0,0.0,0
-54.0,-62.0,-37.0,-44.0,-17.0,-26.0,-72.0,-79.0,0.0,0.0,0.0,0.0,0.0,0.0,0.0,0.0,0
-44.0,-83.0,-47.0,-48.0,-14.0,-27.0,-53.0,-54.0,0.0,0.0,0.0,0.0,0.0,0.0,0.0,0.0,0
-34.0,-94.0,-46.0,-51.0,-17.0,-23.0,-29.0,-23.0,0.0,0.0,0.0,0.0,0.0,0.0,0.0,0.0,0
-39.0,-78.0,-38.0,-47.0,-19.0,-17.0,0.0,18.0,0.0,0.0,0.0,0.0,0.0,0.0,0.0,0.0,0
-53.0,-84.0,-27.0,-42.0,-13.0,-14.0,33.0,40.0,0.0,0.0,0.0,0.0,0.0,0.0,0.0,0.0,0
-72.0,-108.0,-28.0,-40.0,-23.0,-17.0,36.0,44.0,0.0,0.0,0.0,0.0,0.0,0.0,0.0,0.0,0
-79.0,-110.0,-30.0,-40.0,-37.0,-23.0,16.0,36.0,0.0,0.0,0.0,0.0,0.0,0.0,0.0,0.0,0
-50.0,-68.0,-30.0,-38.0,-42.0,-37.0,-12.0,20.0,0.0,0.0,0.0,0.0,0.0,0.0,0.0,0.0,0
-41.0,-34.0,-31.0,-36.0,-45.0,-38.0,-28.0,-3.0,0.0,0.0,0.0,0.0,0.0,0.0,0.0,0.0,0
-34.0,-22.0,-35.0,-29.0,-51.0,-43.0,-42.0,-23.0,0.0,0.0,0.0,0.0,0.0,0.0,0.0,0.0,0
-7.0,-7.0,-27.0,-14.0,-51.0,-45.0,-58.0,-49.0,0.0,0.0,0.0,0.0,0.0,0.0,0.0,0.0,0
-4.0,-25.0,-27.0,-6.0,-47.0,-42.0,-60.0,-56.0,0.0,0.0,0.0,0.0,0.0,0.0,0.0,0.0,0
-27.0,-53.0,-38.0,-5.0,-52.0,-48.0,-53.0,-62.0,0.0,0.0,0.0,0.0,0.0,0.0,0.0,0.0,0
-34.0,-19.0,-36.0,-16.0,-45.0,-53.0,-51.0,-60.0,0.0,0.0,0.0,0.0,0.0,0.0,0.0,0.0,0
-30.0,-2.0,-32.0,-12.0,-34.0,-41.0,-42.0,-61.0,0.0,0.0,0.0,0.0,0.0,0.0,0.0,0.0,0
-43.0,-5.0,-27.0,-1.0,-27.0,-32.0,-45.0,-58.0,0.0,0.0,0.0,0.0,0.0,0.0,0.0,0.0,0
-76.0,8.0,-30.0,-8.0,-20.0,-36.0,-35.0,-50.0,0.0,0.0,0.0,0.0,0.0,0.0,0.0,0.0,0
-69.0,20.0,-24.0,-6.0,-10.0,-39.0,-34.0,-38.0,0.0,0.0,0.0,0.0,0.0,0.0,0.0,0.0,0
-52.0,-6.0,-41.0,-16.0,-19.0,-51.0,-41.0,-36.0,0.0,0.0,0.0,0.0,0.0,0.0,0.0,0.0,0
-45.0,-26.0,-45.0,-28.0,-26.0,-60.0,-47.0,-30.0,0.0,0.0,0.0,0.0,0.0,0.0,0.0,0.0,0
-38.0,-19.0,-44.0,-38.0,-33.0,-55.0,-50.0,-22.0,0.0,0.0,0.0,0.0,0.0,0.0,0.0,0.0,0
-23.0,-16.0,-45.0,-36.0,-30.0,-49.0,-45.0,-26.0,0.0,0.0,0.0,0.0,0.0,0.0,0.0,0.0,0
-14.0,-5.0,-35.0,-28.0,-27.0,-47.0,-41.0,-30.0,0.0,0.0,0.0,0.0,0.0,0.0,0.0,0.0,0
-22.0,-8.0,-26.0,-30.0,-32.0,-42.0,-47.0,-23.0,0.0,0.0,0.0,0.0,0.0,0.0,0.0,0.0,0
-18.0,-1.0,-10.0,-37.0,-37.0,-38.0,-49.0,-25.0,0.0,0.0,0.0,0.0,0.0,0.0,0.0,0.0,0
5.0,30.0,2.0,-34.0,-41.0,-37.0,-43.0,-23.0,0.0,0.0,0.0,0.0,0.0,0.0,0.0,0.0,0
-20.0,23.0,-8.0,-34.0,-39.0,-38.0,-40.0,-20.0,0.0,0.0,0.0,0.0,0.0,0.0,0.0,0.0,0
-41.0,-30.0,-38.0,-42.0,-41.0,-36.0,-40.0,-21.0,0.0,0.0,0.0,0.0,0.0,0.0,0.0,0.0,0
-23.0,-44.0,-39.0,-43.0,-30.0,-27.0,-37.0,-31.0,0.0,0.0,0.0,0.0,0.0,0.0,0.0,0.0,0
-8.0,-54.0,-40.0,-49.0,-28.0,-33.0,-35.0,-32.0,0.0,0.0,0.0,0.0,0.0,0.0,0.0,0.0,0
-10.0,-62.0,-50.0,-53.0,-29.0,-41.0,-27.0,-33.0,0.0,0.0,0.0,0.0,0.0,0.0,0.0,0.0,0
-22.0,-77.0,-75.0,-54.0,-23.0,-32.0,-16.0,-35.0,0.0,0.0,0.0,0.0,0.0,0.0,0.0,0.0,0
-39.0,-76.0,-66.0,-35.0,-4.0,-19.0,-15.0,-37.0,0.0,0.0,0.0,0.0,0.0,0.0,0.0,0.0,0
-38.0,-67.0,-58.0,-25.0,3.0,-22.0,-7.0,-37.0,0.0,0.0,0.0,0.0,0.0,0.0,0.0,0.0,0
-34.0,-55.0,-47.0,-28.0,-3.0,-18.0,6.0,-29.0,0.0,0.0,0.0,0.0,0.0,0.0,0.0,0.0,0
-64.0,-56.0,-42.0,-23.0,-21.0,-19.0,11.0,-34.0,0.0,0.0,0.0,0.0,0.0,0.0,0.0,0.0,0
-89.0,-47.0,-38.0,-19.0,-22.0,-30.0,15.0,-42.0,0.0,0.0,0.0,0.0,0.0,0.0,0.0,0.0,0
-61.0,-28.0,-22.0,-3.0,-6.0,-24.0,20.0,-35.0,0.0,0.0,0.0,0.0,0.0,0.0,0.0,0.0,0
-53.0,-14.0,-14.0,11.0,-5.0,-14.0,6.0,-31.0,0.0,0.0,0.0,0.0,0.0,0.0,0.0,0.0,0
-35.0,-5.0,-10.0,5.0,-15.0,-26.0,-13.0,-36.0,0.0,0.0,0.0,0.0,0.0,0.0,0.0,0.0,0
-35.0,-9.0,-20.0,-15.0,-29.0,-31.0,-27.0,-31.0,0.0,0.0,0.0,0.0,0.0,0.0,0.0,0.0,0
-26.0,-11.0,-23.0,-28.0,-27.0,-37.0,-46.0,-35.0,0.0,0.0,0.0,0.0,0.0,0.0,0.0,0.0,0
-15.0,-20.0,-16.0,-42.0,-25.0,-42.0,-81.0,-43.0,0.0,0.0,0.0,0.0,0.0,0.0,0.0,0.0,0
-36.0,-27.0,-17.0,-58.0,-27.0,-40.0,-83.0,-36.0,0.0,0.0,0.0,0.0,0.0,0.0,0.0,0.0,0
-29.0,-38.0,-25.0,-73.0,-45.0,-38.0,-51.0,-28.0,0.0,0.0,0.0,0.0,0.0,0.0,0.0,0.0,0
-19.0,-40.0,-22.0,-70.0,-52.0,-37.0,-31.0,-23.0,0.0,0.0,0.0,0.0,0.0,0.0,0.0,0.0,0
-39.0,-60.0,-43.0,-72.0,-55.0,-33.0,-31.0,-26.0,0.0,0.0,0.0,0.0,0.0,0.0,0.0,0.0,0
-42.0,-76.0,-49.0,-75.0,-56.0,-36.0,-31.0,-35.0,0.0,0.0,0.0,0.0,0.0,0.0,0.0,0.0,0
-49.0,-90.0,-42.0,-78.0,-66.0,-31.0,-35.0,-40.0,0.0,0.0,0.0,0.0,0.0,0.0,0.0,0.0,0
-74.0,-103.0,-45.0,-91.0,-79.0,-28.0,-38.0,-31.0,0.0,0.0,0.0,0.0,0.0,0.0,0.0,0.0,0
-64.0,-107.0,-56.0,-92.0,-76.0,-34.0,-34.0,-37.0,0.0,0.0,0.0,0.0,0.0,0.0,0.0,0.0,0
-17.0,-69.0,-56.0,-86.0,-77.0,-41.0,-37.0,-46.0,0.0,0.0,0.0,0.0,0.0,0.0,0.0,0.0,0
-16.0,-36.0,-60.0,-80.0,-79.0,-35.0,-39.0,-50.0,0.0,0.0,0.0,0.0,0.0,0.0,0.0,0.0,0
-39.0,-49.0,-57.0,-69.0,-70.0,-32.0,-38.0,-56.0,0.0,0.0,0.0,0.0,0.0,0.0,0.0,0.0,0
-27.0,-55.0,-53.0,-58.0,-57.0,-32.0,-30.0,-60.0,0.0,0.0,0.0,0.0,0.0,0.0,0.0,0.0,0
-18.0,-45.0,-47.0,-51.0,-53.0,-30.0,-31.0,-50.0,0.0,0.0,0.0,0.0,0.0,0.0,0.0,0.0,0
-48.0,-34.0,-35.0,-29.0,-42.0,-29.0,-26.0,-42.0,0.0,0.0,0.0,0.0,0.0,0.0,0.0,0.0,0
-40.0,-15.0,-15.0,-18.0,-26.0,-22.0,-23.0,-36.0,0.0,0.0,0.0,0.0,0.0,0.0,0.0,0.0,0
-10.0,-13.0,-19.0,-8.0,-14.0,-23.0,-26.0,-33.0,0.0,0.0,0.0,0.0,0.0,0.0,0.0,0.0,0
-42.0,-30.0,-23.0,-6.0,-8.0,-25.0,-29.0,-29.0,0.0,0.0,0.0,0.0,0.0,0.0,0.0,0.0,0
-45.0,-14.0,-8.0,3.0,0.0,-21.0,-31.0,-31.0,0.0,0.0,0.0,0.0,0.0,0.0,0.0,0.0,0
-8.0,6.0,-2.0,19.0,8.0,-20.0,-25.0,-22.0,0.0,0.0,0.0,0.0,0.0,0.0,0.0,0.0,0
-3.0,-13.0,-28.0,8.0,4.0,-23.0,-29.0,-20.0,0.0,0.0,0.0,0.0,0.0,0.0,0.0,0.0,0
-24.0,-37.0,-31.0,14.0,15.0,-18.0,-35.0,-20.0,0.0,0.0,0.0,0.0,0.0,0.0,0.0,0.0,0
-21.0,-23.0,-22.0,21.0,20.0,-12.0,-34.0,-16.0,0.0,0.0,0.0,0.0,0.0,0.0,0.0,0.0,0
-15.0,-8.0,-7.0,26.0,16.0,-8.0,-43.0,-18.0,0.0,0.0,0.0,0.0,0.0,0.0,0.0,0.0,0
-27.0,-2.0,-5.0,21.0,9.0,-13.0,-46.0,-10.0,0.0,0.0,0.0,0.0,0.0,0.0,0.0,0.0,0
-21.0,-1.0,-5.0,4.0,-7.0,-9.0,-47.0,-9.0,0.0,0.0,0.0,0.0,0.0,0.0,0.0,0.0,0
-11.0,-6.0,-8.0,-22.0,-21.0,-14.0,-52.0,-23.0,0.0,0.0,0.0,0.0,0.0,0.0,0.0,0.0,0
-18.0,-14.0,-27.0,-44.0,-36.0,-21.0,-43.0,-29.0,0.0,0.0,0.0,0.0,0.0,0.0,0.0,0.0,0
-18.0,-16.0,-44.0,-52.0,-38.0,-27.0,-49.0,-37.0,0.0,0.0,0.0,0.0,0.0,0.0,0.0,0.0,0
-22.0,-28.0,-49.0,-62.0,-47.0,-31.0,-54.0,-38.0,0.0,0.0,0.0,0.0,0.0,0.0,0.0,0.0,0
-38.0,-48.0,-51.0,-62.0,-66.0,-41.0,-53.0,-42.0,0.0,0.0,0.0,0.0,0.0,0.0,0.0,0.0,0
-41.0,-56.0,-59.0,-59.0,-70.0,-49.0,-54.0,-50.0,0.0,0.0,0.0,0.0,0.0,0.0,0.0,0.0,0
-42.0,-58.0,-55.0,-48.0,-66.0,-42.0,-55.0,-46.0,0.0,0.0,0.0,0.0,0.0,0.0,0.0,0.0,0
-30.0,-58.0,-59.0,-39.0,-61.0,-40.0,-51.0,-37.0,0.0,0.0,0.0,0.0,0.0,0.0,0.0,0.0,0
-53.0,-63.0,-63.0,-37.0,-52.0,-40.0,-39.0,-36.0,0.0,0.0,0.0,0.0,0.0,0.0,0.0,0.0,0
-96.0,-99.0,-56.0,-31.0,-49.0,-54.0,-44.0,-46.0,0.0,0.0,0.0,0.0,0.0,0.0,0.0,0.0,0
-125.0,-116.0,-51.0,-17.0,-42.0,-57.0,-48.0,-42.0,0.0,0.0,0.0,0.0,0.0,0.0,0.0,0.0,0
-101.0,-82.0,-35.0,-1.0,-17.0,-48.0,-36.0,-27.0,0.0,0.0,0.0,0.0,0.0,0.0,0.0,0.0,0
-60.0,-47.0,-31.0,-6.0,-11.0,-46.0,-31.0,-33.0,0.0,0.0,0.0,0.0,0.0,0.0,0.0,0.0,0
-26.0,-33.0,-34.0,-11.0,-4.0,-46.0,-39.0,-35.0,0.0,0.0,0.0,0.0,0.0,0.0,0.0,0.0,0
-11.0,-4.0,-29.0,-19.0,-16.0,-50.0,-44.0,-30.0,0.0,0.0,0.0,0.0,0.0,0.0,0.0,0.0,0
-2.0,34.0,-20.0,-37.0,-34.0,-63.0,-41.0,-23.0,0.0,0.0,0.0,0.0,0.0,0.0,0.0,0.0,0
4.0,66.0,-20.0,-55.0,-37.0,-61.0,-41.0,-21.0,0.0,0.0,0.0,0.0,0.0,0.0,0.0,0.0,0
-9.0,61.0,-32.0,-68.0,-33.0,-61.0,-40.0,-18.0,0.0,0.0,0.0,0.0,0.0,0.0,0.0,0.0,0
-29.0,6.0,-46.0,-76.0,-41.0,-64.0,-30.0,-23.0,0.0,0.0,0.0,0.0,0.0,0.0,0.0,0.0,0
-22.0,-33.0,-47.0,-89.0,-62.0,-65.0,-27.0,-17.0,0.0,0.0,0.0,0.0,0.0,0.0,0.0,0.0,0
1.0,-26.0,-39.0,-86.0,-63.0,-65.0,-23.0,-23.0,0.0,0.0,0.0,0.0,0.0,0.0,0.0,0.0,0
12.0,-20.0,-31.0,-75.0,-70.0,-58.0,-24.0,-37.0,0.0,0.0,0.0,0.0,0.0,0.0,0.0,0.0,0
-4.0,-43.0,-31.0,-63.0,-71.0,-46.0,-25.0,-42.0,0.0,0.0,0.0,0.0,0.0,0.0,0.0,0.0,0
-16.0,-58.0,-31.0,-49.0,-55.0,-37.0,-18.0,-50.0,0.0,0.0,0.0,0.0,0.0,0.0,0.0,0.0,0
-37.0,-68.0,-25.0,-36.0,-43.0,-27.0,-8.0,-41.0,0.0,0.0,0.0,0.0,0.0,0.0,0.0,0.0,0
-28.0,-65.0,-19.0,-25.0,-40.0,-20.0,-7.0,-29.0,0.0,0.0,0.0,0.0,0.0,0.0,0.0,0.0,0
-31.0,-40.0,-13.0,-8.0,-46.0,-17.0,-6.0,-33.0,0.0,0.0,0.0,0.0,0.0,0.0,0.0,0.0,0
-49.0,-15.0,-11.0,-7.0,-46.0,-29.0,-18.0,-44.0,0.0,0.0,0.0,0.0,0.0,0.0,0.0,0.0,0
-58.0,-4.0,-10.0,-14.0,-55.0,-28.0,-32.0,-48.0,0.0,0.0,0.0,0.0,0.0,0.0,0.0,0.0,0
-54.0,-15.0,-12.0,-4.0,-41.0,-30.0,-38.0,-51.0,0.0,0.0,0.0,0.0,0.0,0.0,0.0,0.0,0
-39.0,-15.0,-3.0,10.0,-21.0,-30.0,-36.0,-50.0,0.0,0.0,0.0,0.0,0.0,0.0,0.0,0.0,0
-19.0,2.0,5.0,20.0,-3.0,-18.0,-21.0,-42.0,0.0,0.0,0.0,0.0,0.0,0.0,0.0,0.0,0
-47.0,-17.0,-22.0,14.0,7.0,-16.0,-23.0,-40.0,0.0,0.0,0.0,0.0,0.0,0.0,0.0,0.0,0
-59.0,-42.0,-47.0,6.0,1.0,-25.0,-24.0,-43.0,0.0,0.0,0.0,0.0,0.0,0.0,0.0,0.0,0
-45.0,-62.0,-62.0,-4.0,-2.0,-33.0,-30.0,-39.0,0.0,0.0,0.0,0.0,0.0,0.0,0.0,0.0,0
-54.0,-97.0,-77.0,-27.0,-10.0,-39.0,-36.0,-38.0,0.0,0.0,0.0,0.0,0.0,0.0,0.0,0.0,0
-55.0,-114.0,-93.0,-44.0,-28.0,-46.0,-40.0,-44.0,0.0,0.0,0.0,0.0,0.0,0.0,0.0,0.0,0
-53.0,-91.0,-82.0,-42.0,-18.0,-41.0,-30.0,-38.0,0.0,0.0,0.0,0.0,0.0,0.0,0.0,0.0,0
-56.0,-72.0,-54.0,-34.0,-24.0,-32.0,-20.0,-31.0,0.0,0.0,0.0,0.0,0.0,0.0,0.0,0.0,0
-43.0,-50.0,-36.0,-45.0,-27.0,-27.0,-9.0,-29.0,0.0,0.0,0.0,0.0,0.0,0.0,0.0,0.0,0
-28.0,-42.0,-31.0,-51.0,-32.0,-26.0,-10.0,-32.0,0.0,0.0,0.0,0.0,0.0,0.0,0.0,0.0,0
-31.0,-54.0,-48.0,-65.0,-44.0,-28.0,-16.0,-36.0,0.0,0.0,0.0,0.0,0.0,0.0,0.0,0.0,0
-14.0,-55.0,-48.0,-72.0,-56.0,-26.0,-23.0,-38.0,0.0,0.0,0.0,0.0,0.0,0.0,0.0,0.0,0
-10.0,-34.0,-29.0,-63.0,-59.0,-30.0,-20.0,-44.0,0.0,0.0,0.0,0.0,0.0,0.0,0.0,0.0,0
-46.0,-41.0,-29.0,-69.0,-59.0,-29.0,-37.0,-49.0,0.0,0.0,0.0,0.0,0.0,0.0,0.0,0.0,1
-12.0,-15.0,-37.0,-57.0,-57.0,-19.0,-40.0,-52.0,0.0,0.0,0.0,0.0,0.0,0.0,0.0,0.0,1
8.0,2.0,-45.0,-47.0,-55.0,-13.0,-36.0,-46.0,0.0,0.0,0.0,0.0,0.0,0.0,0.0,0.0,1
-13.0,4.0,-49.0,-52.0,-60.0,-14.0,-34.0,-44.0,0.0,0.0,0.0,0.0,0.0,0.0,0.0,0.0,1
-35.0,-10.0,-35.0,-41.0,-60.0,-18.0,-38.0,-37.0,0.0,0.0,0.0,0.0,0.0,0.0,0.0,0.0,1
-41.0,-26.0,-22.0,-32.0,-53.0,-17.0,-45.0,-28.0,0.0,0.0,0.0,0.0,0.0,0.0,0.0,0.0,1
-33.0,-34.0,-23.0,-24.0,-38.0,-15.0,-41.0,-21.0,0.0,0.0,0.0,0.0,0.0,0.0,0.0,0.0,1
-43.0,-25.0,-22.0,-14.0,-40.0,-15.0,-50.0,-21.0,0.0,0.0,0.0,0.0,0.0,0.0,0.0,0.0,1
-46.0,-18.0,-18.0,-6.0,-32.0,-20.0,-51.0,-19.0,0.0,0.0,0.0,0.0,0.0,0.0,0.0,0.0,1
-37.0,-22.0,-13.0,-1.0,-32.0,-28.0,-46.0,-18.0,0.0,0.0,0.0,0.0,0.0,0.0,0.0,0.0,1
-39.0,-45.0,-17.0,-9.0,-38.0,-32.0,-42.0,-16.0,0.0,0.0,0.0,0.0,0.0,0.0,0.0,0.0,1
-44.0,-46.0,-22.0,-25.0,-29.0,-33.0,-42.0,-10.0,0.0,0.0,0.0,0.0,0.0,0.0,0.0,0.0,1
-59.0,-58.0,-38.0,-43.0,-30.0,-35.0,-35.0,-14.0,0.0,0.0,0.0,0.0,0.0,0.0,0.0,0.0,1
-47.0,-51.0,-47.0,-60.0,-43.0,-35.0,-32.0,-25.0,0.0,0.0,0.0,0.0,0.0,0.0,0.0,0.0,1
-31.0,-45.0,-57.0,-69.0,-42.0,-38.0,-28.0,-19.0,0.0,0.0,0.0,0.0,0.0,0.0,0.0,0.0,1
-26.0,-62.0,-64.0,-73.0,-44.0,-44.0,-29.0,-16.0,0.0,0.0,0.0,0.0,0.0,0.0,0.0,0.0,1
-13.0,-44.0,-28.0,-58.0,-41.0,-46.0,-30.0,-21.0,0.0,0.0,0.0,0.0,0.0,0.0,0.0,0.0,1
-15.0,-30.0,-11.0,-40.0,-33.0,-42.0,-25.0,-26.0,0.0,0.0,0.0,0.0,0.0,0.0,0.0,0.0,1
-10.0,-38.0,-13.0,-33.0,-26.0,-30.0,-8.0,-28.0,0.0,0.0,0.0,0.0,0.0,0.0,0.0,0.0,1
-2.0,-38.0,-25.0,-41.0,-33.0,-30.0,-7.0,-35.0,0.0,0.0,0.0,0.0,0.0,0.0,0.0,0.0,1
-19.0,-45.0,-46.0,-56.0,-48.0,-33.0,-14.0,-34.0,0.0,0.0,0.0,0.0,0.0,0.0,0.0,0.0,1
-36.0,-60.0,-49.0,-50.0,-51.0,-34.0,-19.0,-35.0,0.0,0.0,0.0,0.0,0.0,0.0,0.0,0.0,1
-33.0,-45.0,-32.0,-37.0,-49.0,-29.0,-16.0,-46.0,0.0,0.0,0.0,0.0,0.0,0.0,0.0,0.0,1
-28.0,-37.0,-29.0,-31.0,-51.0,-19.0,-21.0,-45.0,0.0,0.0,0.0,0.0,0.0,0.0,0.0,0.0,1
-49.0,-45.0,-27.0,-27.0,-48.0,-23.0,-38.0,-42.0,0.0,0.0,0.0,0.0,0.0,0.0,0.0,0.0,1
-33.0,-42.0,-32.0,-20.0,-34.0,-17.0,-40.0,-39.0,0.0,0.0,0.0,0.0,0.0,0.0,0.0,0.0,1
-9.0,-15.0,-11.0,-5.0,-20.0,-21.0,-36.0,-30.0,0.0,0.0,0.0,0.0,0.0,0.0,0.0,0.0,1
-30.0,-28.0,-22.0,-6.0,-11.0,-31.0,-41.0,-33.0,0.0,0.0,0.0,0.0,0.0,0.0,0.0,0.0,1
-58.0,-42.0,-25.0,-1.0,-6.0,-32.0,-47.0,-31.0,0.0,0.0,0.0,0.0,0.0,0.0,0.0,0.0,1
-35.0,-18.0,-12.0,6.0,4.0,-37.0,-48.0,-32.0,0.0,0.0,0.0,0.0,0.0,0.0,0.0,0.0,1
-12.0,-4.0,-10.0,6.0,9.0,-31.0,-55.0,-35.0,0.0,0.0,0.0,0.0,0.0,0.0,0.0,0.0,1
-22.0,12.0,-3.0,9.0,10.0,-28.0,-51.0,-34.0,0.0,0.0,0.0,0.0,0.0,0.0,0.0,0.0,1
-35.0,23.0,5.0,3.0,-1.0,-31.0,-40.0,-28.0,0.0,0.0,0.0,0.0,0.0,0.0,0.0,0.0,1
-14.0,21.0,0.0,-18.0,-8.0,-41.0,-34.0,-12.0,0.0,0.0,0.0,0.0,0.0,0.0,0.0,0.0,1
-21.0,5.0,-1.0,-30.0,-11.0,-44.0,-33.0,-16.0,0.0,0.0,0.0,0.0,0.0,0.0,0.0,0.0,1
-53.0,-43.0,-19.0,-34.0,-13.0,-40.0,-27.0,-26.0,0.0,0.0,0.0,0.0,0.0,0.0,0.0,0.0,1
-73.0,-70.0,-34.0,-30.0,-23.0,-46.0,-22.0,-37.0,0.0,0.0,0.0,0.0,0.0,0.0,0.0,0.0,1
-79.0,-70.0,-36.0,-39.0,-27.0,-47.0,-21.0,-50.0,0.0,0.0,0.0,0.0,0.0,0.0,0.0,0.0,1
-54.0,-74.0,-44.0,-58.0,-35.0,-43.0,-18.0,-69.0,0.0,0.0,0.0,0.0,0.0,0.0,0.0,0.0,1
-10.0,-67.0,-55.0,-62.0,-37.0,-34.0,-16.0,-75.0,0.0,0.0,0.0,0.0,0.0,0.0,0.0,0.0,1
-19.0,-72.0,-68.0,-75.0,-56.0,-42.0,-19.0,-70.0,0.0,0.0,0.0,0.0,0.0,0.0,0.0,0.0,1
-21.0,-71.0,-72.0,-73.0,-52.0,-43.0,-27.0,-61.0,0.0,0.0,0.0,0.0,0.0,0.0,0.0,0.0,1
-11.0,-47.0,-65.0,-75.0,-56.0,-42.0,-30.0,-60.0,0.0,0.0,0.0,0.0,0.0,0.0,0.0,0.0,1
-17.0,-41.0,-63.0,-71.0,-65.0,-49.0,-38.0,-61.0,0.0,0.0,0.0,0.0,0.0,0.0,0.0,0.0,1
-44.0,-54.0,-74.0,-71.0,-66.0,-53.0,-48.0,-57.0,0.0,0.0,0.0,0.0,0.0,0.0,0.0,0.0,1
-41.0,-46.0,-71.0,-59.0,-53.0,-46.0,-47.0,-43.0,0.0,0.0,0.0,0.0,0.0,0.0,0.0,0.0,1
-39.0,-43.0,-63.0,-47.0,-47.0,-46.0,-54.0,-45.0,0.0,0.0,0.0,0.0,0.0,0.0,0.0,0.0,1
-46.0,-49.0,-66.0,-36.0,-35.0,-42.0,-61.0,-51.0,0.0,0.0,0.0,0.0,0.0,0.0,0.0,0.0,1
-43.0,-33.0,-58.0,-40.0,-31.0,-41.0,-67.0,-49.0,0.0,0.0,0.0,0.0,0.0,0.0,0.0,0.0,1
-40.0,-22.0,-55.0,-39.0,-34.0,-41.0,-68.0,-34.0,0.0,0.0,0.0,0.0,0.0,0.0,0.0,0.0,1
-31.0,-13.0,-38.0,-19.0,-25.0,-37.0,-65.0,-17.0,0.0,0.0,0.0,0.0,0.0,0.0,0.0,0.0,1
-37.0,2.0,-7.0,2.0,-12.0,-37.0,-56.0,-22.0,0.0,0.0,0.0,0.0,0.0,0.0,0.0,0.0,1
-46.0,7.0,-9.0,-22.0,-16.0,-39.0,-56.0,-33.0,0.0,0.0,0.0,0.0,0.0,0.0,0.0,0.0,1
-24.0,7.0,-14.0,-39.0,-28.0,-38.0,-47.0,-30.0,0.0,0.0,0.0,0.0,0.0,0.0,0.0,0.0,1
-26.0,10.0,2.0,-38.0,-25.0,-35.0,-35.0,-16.0,0.0,0.0,0.0,0.0,0.0,0.0,0.0,0.0,1
-21.0,2.0,7.0,-28.0,-13.0,-29.0,-22.0,-14.0,0.0,0.0,0.0,0.0,0.0,0.0,0.0,0.0,1
-14.0,-10.0,3.0,-27.0,-11.0,-21.0,-12.0,-17.0,0.0,0.0,0.0,0.0,0.0,0.0,0.0,0.0,1
-8.0,-22.0,-3.0,-35.0,-18.0,-23.0,-9.0,-24.0,0.0,0.0,0.0,0.0,0.0,0.0,0.0,0.0,1
-8.0,-39.0,-10.0,-41.0,-30.0,-32.0,-6.0,-29.0,0.0,0.0,0.0,0.0,0.0,0.0,0.0,0.0,1
-4.0,-43.0,-13.0,-36.0,-40.0,-41.0,-5.0,-36.0,0.0,0.0,0.0,0.0,0.0,0.0,0.0,0.0,1
-10.0,-38.0,-22.0,-30.0,-44.0,-34.0,-5.0,-39.0,0.0,0.0,0.0,0.0,0.0,0.0,0.0,0.0,1
-5.0,-14.0,-29.0,-25.0,-40.0,-21.0,-8.0,-39.0,0.0,0.0,0.0,0.0,0.0,0.0,0.0,0.0,1
0.0,11.0,-29.0,-13.0,-32.0,-27.0,-6.0,-40.0,0.0,0.0,0.0,0.0,0.0,0.0,0.0,0.0,1
-25.0,22.0,-26.0,1.0,-39.0,-20.0,-12.0,-40.0,0.0,0.0,0.0,0.0,0.0,0.0,0.0,0.0,1
-45.0,32.0,-37.0,6.0,-37.0,-6.0,-20.0,-38.0,0.0,0.0,0.0,0.0,0.0,0.0,0.0,0.0,1
-48.0,23.0,-34.0,7.0,-33.0,-2.0,-27.0,-42.0,0.0,0.0,0.0,0.0,0.0,0.0,0.0,0.0,1
-43.0,9.0,-33.0,15.0,-16.0,-7.0,-37.0,-42.0,0.0,0.0,0.0,0.0,0.0,0.0,0.0,0.0,1
-31.0,20.0,-31.0,16.0,-10.0,-12.0,-39.0,-36.0,0.0,0.0,0.0,0.0,0.0,0.0,0.0,0.0,1
-29.0,14.0,-27.0,7.0,-11.0,-15.0,-50.0,-34.0,0.0,0.0,0.0,0.0,0.0,0.0,0.0,0.0,1
-35.0,-4.0,-16.0,1.0,-10.0,-19.0,-60.0,-40.0,0.0,0.0,0.0,0.0,0.0,0.0,0.0,0.0,1
-48.0,-28.0,-3.0,4.0,1.0,-16.0,-54.0,-24.0,0.0,0.0,0.0,0.0,0.0,0.0,0.0,0.0,1
-75.0,-43.0,-5.0,-5.0,-1.0,-25.0,-56.0,-22.0,0.0,0.0,0.0,0.0,0.0,0.0,0.0,0.0,1
-56.0,-61.0,-9.0,-33.0,-13.0,-41.0,-56.0,-20.0,0.0,0.0,0.0,0.0,0.0,0.0,0.0,0.0,1
-46.0,-76.0,-14.0,-47.0,-19.0,-48.0,-49.0,-21.0,0.0,0.0,0.0,0.0,0.0,0.0,0.0,0.0,1
-53.0,-80.0,-19.0,-50.0,-26.0,-55.0,-49.0,-9.0,0.0,0.0,0.0,0.0,0.0,0.0,0.0,0.0,1
-45.0,-77.0,-19.0,-61.0,-30.0,-60.0,-43.0,-10.0,0.0,0.0,0.0,0.0,0.0,0.0,0.0,0.0,1
-36.0,-76.0,-21.0,-76.0,-33.0,-61.0,-30.0,-22.0,0.0,0.0,0.0,0.0,0.0,0.0,0.0,0.0,1
-39.0,-66.0,-24.0,-77.0,-43.0,-69.0,-29.0,-30.0,0.0,0.0,0.0,0.0,0.0,0.0,0.0,0.0,1
-33.0,-53.0,-32.0,-79.0,-71.0,-71.0,-32.0,-36.0,0.0,0.0,0.0,0.0,0.0,0.0,0.0,0.0,1
-17.0,-40.0,-38.0,-79.0,-71.0,-64.0,-26.0,-49.0,0.0,0.0,0.0,0.0,0.0,0.0,0.0,0.0,1
6.0,-19.0,-28.0,-71.0,-54.0,-50.0,-16.0,-43.0,0.0,0.0,0.0,0.0,0.0,0.0,0.0,0.0,1
-21.0,-43.0,-46.0,-58.0,-48.0,-34.0,-5.0,-38.0,0.0,0.0,0.0,0.0,0.0,0.0,0.0,0.0,1
-60.0,-70.0,-59.0,-60.0,-54.0,-35.0,-3.0,-41.0,0.0,0.0,0.0,0.0,0.0,0.0,0.0,0.0,1
-68.0,-71.0,-47.0,-58.0,-63.0,-36.0,-11.0,-42.0,0.0,0.0,0.0,0.0,0.0,0.0,0.0,0.0,1
-74.0,-59.0,-31.0,-33.0,-57.0,-29.0,-18.0,-38.0,0.0,0.0,0.0,0.0,0.0,0.0,0.0,0.0,1
-67.0,-53.0,-24.0,-25.0,-50.0,-23.0,-20.0,-36.0,0.0,0.0,0.0,0.0,0.0,0.0,0.0,0.0,1
-54.0,-32.0,-22.0,-27.0,-43.0,-28.0,-33.0,-32.0,0.0,0.0,0.0,0.0,0.0,0.0,0.0,0.0,1
-51.0,-29.0,-40.0,-23.0,-30.0,-25.0,-47.0,-22.0,0.0,0.0,0.0,0.0,0.0,0.0,0.0,0.0,1
-50.0,-25.0,-56.0,-27.0,-20.0,-24.0,-46.0,-17.0,0.0,0.0,0.0,0.0,0.0,0.0,0.0,0.0,1
-51.0,-37.0,-68.0,-41.0,-18.0,-22.0,-56.0,-16.0,0.0,0.0,0.0,0.0,0.0,0.0,0.0,0.0,1
-59.0,-53.0,-55.0,-42.0,-9.0,-27.0,-59.0,-9.0,0.0,0.0,0.0,0.0,0.0,0.0,0.0,0.0,1
-65.0,-17.0,-31.0,-42.0,-20.0,-37.0,-62.0,-11.0,0.0,0.0,0.0,0.0,0.0,0.0,0.0,0.0,1
-53.0,-18.0,-16.0,-50.0,-29.0,-47.0,-63.0,-26.0,0.0,0.0,0.0,0.0,0.0,0.0,0.0,0.0,1
-50.0,-46.0,-21.0,-53.0,-27.0,-43.0,-68.0,-16.0,0.0,0.0,0.0,0.0,0.0,0.0,0.0,0.0,1
-47.0,-49.0,-10.0,-42.0,-15.0,-34.0,-60.0,-11.0,0.0,0.0,0.0,0.0,0.0,0.0,0.0,0.0,1
-32.0,-8.0,4.0,-27.0,-4.0,-36.0,-49.0,-13.0,0.0,0.0,0.0,0.0,0.0,0.0,0.0,0.0,1
-12.0,14.0,8.0,-30.0,12.0,-34.0,-37.0,-20.0,0.0,0.0,0.0,0.0,0.0,0.0,0.0,0.0,1
-1.0,29.0,-7.0,-27.0,24.0,-19.0,-29.0,-25.0,0.0,0.0,0.0,0.0,0.0,0.0,0.0,0.0,1
-2.0,37.0,-27.0,-28.0,24.0,-18.0,-23.0,-26.0,0.0,0.0,0.0,0.0,0.0,0.0,0.0,0.0,1
-6.0,25.0,-73.0,-52.0,3.0,-15.0,-17.0,-16.0,0.0,0.0,0.0,0.0,0.0,0.0,0.0,0.0,1
-8.0,12.0,-102.0,-72.0,-14.0,-15.0,-4.0,-19.0,0.0,0.0,0.0,0.0,0.0,0.0,0.0,0.0,1
-25.0,7.0,-66.0,-50.0,-13.0,-11.0,1.0,-21.0,0.0,0.0,0.0,0.0,0.0,0.0,0.0,0.0,1
-50.0,-40.0,-45.0,-38.0,-14.0,-7.0,4.0,-25.0,0.0,0.0,0.0,0.0,0.0,0.0,0.0,0.0,1
-54.0,-78.0,-39.0,-39.0,-19.0,-13.0,4.0,-36.0,0.0,0.0,0.0,0.0,0.0,0.0,0.0,0.0,1
-48.0,-67.0,-12.0,-13.0,-24.0,-20.0,-6.0,-38.0,0.0,0.0,0.0,0.0,0.0,0.0,0.0,0.0,1
-31.0,-30.0,72.0,70.0,-14.0,-11.0,-13.0,-49.0,0.0,0.0,0.0,0.0,0.0,0.0,0.0,0.0,1
-16.0,-7.0,164.0,142.0,8.0,-6.0,-21.0,-53.0,0.0,0.0,0.0,0.0,0.0,0.0,0.0,0.0,1
-23.0,-39.0,152.0,120.0,3.0,-9.0,-34.0,-60.0,0.0,0.0,0.0,0.0,0.0,0.0,0.0,0.0,1
-50.0,-75.0,82.0,51.0,-20.0,-23.0,-60.0,-79.0,0.0,0.0,0.0,0.0,0.0,0.0,0.0,0.0,1
-36.0,-59.0,74.0,38.0,-10.0,-25.0,-65.0,-70.0,0.0,0.0,0.0,0.0,0.0,0.0,0.0,0.0,1
12.0,-36.0,64.0,33.0,2.0,-24.0,-65.0,-37.0,0.0,0.0,0.0,0.0,0.0,0.0,0.0,0.0,1
-4.0,-38.0,19.0,13.0,-8.0,-37.0,-65.0,-29.0,0.0,0.0,0.0,0.0,0.0,0.0,0.0,0.0,1
-91.0,-70.0,-66.0,-52.0,-44.0,-75.0,-80.0,-23.0,0.0,0.0,0.0,0.0,0.0,0.0,0.0,0.0,1
-91.0,-31.0,-105.0,-110.0,-64.0,-94.0,-74.0,-13.0,0.0,0.0,0.0,0.0,0.0,0.0,0.0,0.0,1
-84.0,-32.0,-104.0,-136.0,-74.0,-96.0,-64.0,3.0,0.0,0.0,0.0,0.0,0.0,0.0,0.0,0.0,1
-79.0,-57.0,-92.0,-145.0,-79.0,-91.0,-47.0,12.0,0.0,0.0,0.0,0.0,0.0,0.0,0.0,0.0,1
-46.0,-44.0,-69.0,-137.0,-62.0,-77.0,-35.0,6.0,0.0,0.0,0.0,0.0,0.0,0.0,0.0,0.0,1
-1.0,1.0,-39.0,-113.0,-41.0,-63.0,-16.0,10.0,0.0,0.0,0.0,0.0,0.0,0.0,0.0,0.0,1
18.0,59.0,-23.0,-89.0,-34.0,-63.0,-10.0,3.0,0.0,0.0,0.0,0.0,0.0,0.0,0.0,0.0,1
10.0,40.0,-50.0,-94.0,-53.0,-67.0,-12.0,-6.0,0.0,0.0,0.0,0.0,0.0,0.0,0.0,0.0,1
-2.0,-32.0,-127.0,-126.0,-74.0,-78.0,-17.0,-30.0,0.0,0.0,0.0,0.0,0.0,0.0,0.0,0.0,1
7.0,-60.0,-218.0,-181.0,-124.0,-118.0,-69.0,-97.0,0.0,0.0,0.0,0.0,0.0,0.0,0.0,0.0,1
49.0,-34.0,-240.0,-184.0,-150.0,-144.0,-118.0,-171.0,0.0,0.0,0.0,0.0,0.0,0.0,0.0,0.0,1
46.0,-33.0,-216.0,-128.0,-125.0,-119.0,-121.0,-213.0,0.0,0.0,0.0,0.0,0.0,0.0,0.0,0.0,1
6.0,7.0,-148.0,-91.0,-84.0,-68.0,-87.0,-184.0,0.0,0.0,0.0,0.0,0.0,0.0,0.0,0.0,1
-5.0,45.0,-90.0,-60.0,-65.0,-49.0,-52.0,-124.0,0.0,0.0,0.0,0.0,0.0,0.0,0.0,0.0,1
22.0,57.0,-71.0,-53.0,-50.0,-35.0,-42.0,-86.0,0.0,0.0,0.0,0.0,0.0,0.0,0.0,0.0,1
2.0,47.0,-61.0,-41.0,-44.0,-26.0,-40.0,-49.0,0.0,0.0,0.0,0.0,0.0,0.0,0.0,0.0,1
-75.0,37.0,-62.0,-28.0,-29.0,-18.0,-25.0,-7.0,0.0,0.0,0.0,0.0,0.0,0.0,0.0,0.0,1
-125.0,-18.0,-101.0,-33.0,-20.0,-1.0,-14.0,16.0,0.0,0.0,0.0,0.0,0.0,0.0,0.0,0.0,1
-150.0,-76.0,-106.0,-19.0,4.0,17.0,-2.0,32.0,0.0,0.0,0.0,0.0,0.0,0.0,0.0,0.0,1
-142.0,-87.0,-95.0,7.0,33.0,40.0,31.0,69.0,0.0,0.0,0.0,0.0,0.0,0.0,0.0,0.0,1
-112.0,-111.0,-74.0,14.0,28.0,35.0,23.0,71.0,0.0,0.0,0.0,0.0,0.0,0.0,0.0,0.0,1
-64.0,-115.0,-44.0,21.0,23.0,32.0,25.0,41.0,0.0,0.0,0.0,0.0,0.0,0.0,0.0,0.0,1
14.0,-74.0,8.0,14.0,18.0,30.0,30.0,4.0,0.0,0.0,0.0,0.0,0.0,0.0,0.0,0.0,1
75.0,-38.0,41.0,-16.0,-5.0,12.0,9.0,-19.0,0.0,0.0,0.0,0.0,0.0,0.0,0.0,0.0,1
56.0,-45.0,23.0,-16.0,-2.0,12.0,9.0,-35.0,0.0,0.0,0.0,0.0,0.0,0.0,0.0,0.0,1
-4.0,-70.0,48.0,31.0,24.0,27.0,25.0,-29.0,0.0,0.0,0.0,0.0,0.0,0.0,0.0,0.0,1
-26.0,-60.0,123.0,98.0,91.0,38.0,47.0,4.0,0.0,0.0,0.0,0.0,0.0,0.0,0.0,0.0,1
-70.0,-60.0,144.0,123.0,113.0,37.0,17.0,-65.0,0.0,0.0,0.0,0.0,0.0,0.0,0.0,0.0,1
-90.0,-50.0,180.0,142.0,93.0,15.0,-28.0,-178.0,0.0,0.0,0.0,0.0,0.0,0.0,0.0,0.0,1
-150.0,-56.0,200.0,100.0,15.0,-40.0,-94.0,-292.0,0.0,0.0,0.0,0.0,0.0,0.0,0.0,0.0,1
-200.0,-76.0,174.0,22.0,-74.0,-100.0,-133.0,-295.0,0.0,0.0,0.0,0.0,0.0,0.0,0.0,0.0,1
-237.0,-91.0,135.0,-27.0,-116.0,-112.0,-118.0,-171.0,0.0,0.0,0.0,0.0,0.0,0.0,0.0,0.0,1
-152.0,-66.0,86.0,-43.0,-115.0,-113.0,-108.0,-81.0,0.0,0.0,0.0,0.0,0.0,0.0,0.0,0.0,1
-47.0,-47.0,-22.0,-61.0,-104.0,-105.0,-85.0,-10.0,0.0,0.0,0.0,0.0,0.0,0.0,0.0,0.0,1
-29.0,-80.0,-83.0,-84.0,-111.0,-114.0,-75.0,52.0,0.0,0.0,0.0,0.0,0.0,0.0,0.0,0.0,1
-41.0,-122.0,-84.0,-66.0,-96.0,-109.0,-61.0,74.0,0.0,0.0,0.0,0.0,0.0,0.0,0.0,0.0,1
-25.0,-143.0,-73.0,-28.0,-56.0,-55.0,-26.0,57.0,0.0,0.0,0.0,0.0,0.0,0.0,0.0,0.0,1
-27.0,-135.0,-30.0,35.0,14.0,13.0,12.0,39.0,0.0,0.0,0.0,0.0,0.0,0.0,0.0,0.0,1
-60.0,-92.0,18.0,90.0,66.0,43.0,21.0,70.0,0.0,0.0,0.0,0.0,0.0,0.0,0.0,0.0,1
51.0,23.0,35.0,76.0,59.0,45.0,53.0,136.0,0.0,0.0,0.0,0.0,0.0,0.0,0.0,0.0,1
213.0,145.0,-17.0,1.0,33.0,36.0,85.0,177.0,0.0,0.0,0.0,0.0,0.0,0.0,0.0,0.0,1
336.0,233.0,-55.0,-75.0,-15.0,1.0,89.0,187.0,0.0,0.0,0.0,0.0,0.0,0.0,0.0,0.0,1
389.0,265.0,-53.0,-105.0,-36.0,-28.0,77.0,185.0,0.0,0.0,0.0,0.0,0.0,0.0,0.0,0.0,1
373.0,270.0,-64.0,-123.0,-44.0,-42.0,13.0,171.0,0.0,0.0,0.0,0.0,0.0,0.0,0.0,0.0,1
330.0,244.0,-69.0,-140.0,-54.0,-47.0,-45.0,184.0,0.0,0.0,0.0,0.0,0.0,0.0,0.0,0.0,1
144.0,79.0,-105.0,-160.0,-68.0,-60.0,-51.0,181.0,0.0,0.0,0.0,0.0,0.0,0.0,0.0,0.0,1
-126.0,-94.0,-159.0,-176.0,-84.0,-71.0,-31.0,168.0,0.0,0.0,0.0,0.0,0.0,0.0,0.0,0.0,1
-386.0,-164.0,-158.0,-146.0,-95.0,-85.0,15.0,23.0,0.0,0.0,0.0,0.0,0.0,0.0,0.0,0.0,1
-506.0,-222.0,-131.0,-60.0,-49.0,-62.0,-16.0,-198.0,0.0,0.0,0.0,0.0,0.0,0.0,0.0,0.0,1
-406.0,-269.0,-86.0,13.0,9.0,-32.0,-88.0,-397.0,0.0,0.0,0.0,0.0,0.0,0.0,0.0,0.0,1
-129.0,-282.0,-131.0,10.0,-37.0,-95.0,-179.0,-565.0,0.0,0.0,0.0,0.0,0.0,0.0,0.0,0.0,1
96.0,-186.0,-139.0,-4.0,-77.0,-116.0,-138.0,-462.0,0.0,0.0,0.0,0.0,0.0,0.0,0.0,0.0,1
191.0,-17.0,-205.0,-85.0,-97.0,-88.0,-62.0,-340.0,0.0,0.0,0.0,0.0,0.0,0.0,0.0,0.0,1
-56.0,100.0,-308.0,-181.0,-101.0,-48.0,-51.0,-259.0,0.0,0.0,0.0,0.0,0.0,0.0,0.0,0.0,1
-269.0,120.0,-275.0,-178.0,-74.0,-2.0,-38.0,-40.0,0.0,0.0,0.0,0.0,0.0,0.0,0.0,0.0,1
-164.0,133.0,-179.0,-134.0,-52.0,9.0,-35.0,163.0,0.0,0.0,0.0,0.0,0.0,0.0,0.0,0.0,1
-335.0,90.0,-43.0,-77.0,-56.0,-26.0,-122.0,178.0,0.0,0.0,0.0,0.0,0.0,0.0,0.0,0.0,1
-543.0,78.0,155.0,7.0,-79.0,-79.0,-333.0,11.0,0.0,0.0,0.0,0.0,0.0,0.0,0.0,0.0,1
-464.0,46.0,346.0,118.0,-89.0,-156.0,-366.0,-247.0,0.0,0.0,0.0,0.0,0.0,0.0,0.0,0.0,1
-277.0,-106.0,391.0,201.0,-59.0,-186.0,-454.0,-352.0,0.0,0.0,0.0,0.0,0.0,0.0,0.0,0.0,1
-85.0,-191.0,248.0,136.0,-15.0,-122.0,-626.0,-159.0,0.0,0.0,0.0,0.0,0.0,0.0,0.0,0.0,1
49.0,-222.0,78.0,94.0,91.0,49.0,-538.0,133.0,0.0,0.0,0.0,0.0,0.0,0.0,0.0,0.0,1
35.0,-213.0,44.0,76.0,144.0,130.0,151.0,59.0,0.0,0.0,0.0,0.0,0.0,0.0,0.0,0.0,1
11.0,-226.0,-54.0,-17.0,90.0,80.0,210.0,-201.0,0.0,0.0,0.0,0.0,0.0,0.0,0.0,0.0,1
-79.0,-269.0,-195.0,-97.0,-3.0,-24.0,-94.0,-186.0,0.0,0.0,0.0,0.0,0.0,0.0,0.0,0.0,1
-18.0,-193.0,-132.0,-67.0,-9.0,0.0,13.0,-100.0,0.0,0.0,0.0,0.0,0.0,0.0,0.0,0.0,1
86.0,-108.0,-113.0,-49.0,-5.0,84.0,258.0,-200.0,0.0,0.0,0.0,0.0,0.0,0.0,0.0,0.0,1
79.0,-127.0,-237.0,-190.0,-137.0,-7.0,372.0,-365.0,0.0,0.0,0.0,0.0,0.0,0.0,0.0,0.0,1
5.0,-67.0,-139.0,-202.0,-164.0,-69.0,546.0,-291.0,0.0,0.0,0.0,0.0,0.0,0.0,0.0,0.0,1
-4.0,101.0,106.0,-24.0,-32.0,54.0,923.0,-3.0,0.0,0.0,0.0,0.0,0.0,0.0,0.0,0.0,1
233.0,252.0,295.0,144.0,64.0,115.0,1096.0,171.0,0.0,0.0,0.0,0.0,0.0,0.0,0.0,0.0,1
442.0,345.0,334.0,214.0,116.0,151.0,1107.0,413.0,0.0,0.0,0.0,0.0,0.0,0.0,0.0,0.0,1
422.0,303.0,263.0,168.0,116.0,121.0,988.0,534.0,0.0,0.0,0.0,0.0,0.0,0.0,0.0,0.0,1
357.0,143.0,162.0,116.0,35.0,-32.0,672.0,336.0,0.0,0.0,0.0,0.0,0.0,0.0,0.0,0.0,1
254.0,6.0,13.0,16.0,-90.0,-257.0,175.0,102.0,0.0,0.0,0.0,0.0,0.0,0.0,0.0,0.0,1
-40.0,-144.0,-140.0,-153.0,-280.0,-492.0,-391.0,92.0,0.0,0.0,0.0,0.0,0.0,0.0,0.0,0.0,1
-450.0,-400.0,-235.0,-184.0,-379.0,-586.0,-867.0,240.0,0.0,0.0,0.0,0.0,0.0,0.0,0.0,0.0,1
-575.0,-526.0,-292.0,-120.0,-323.0,-516.0,-1288.0,499.0,0.0,0.0,0.0,0.0,0.0,0.0,0.0,0.0,1
-310.0,-345.0,-298.0,-74.0,-126.0,-229.0,-1421.0,558.0,0.0,0.0,0.0,0.0,0.0,0.0,0.0,0.0,1
-122.0,-172.0,-332.0,-130.0,3.0,98.0,-1273.0,174.0,0.0,0.0,0.0,0.0,0.0,0.0,0.0,0.0,1
-80.0,-69.0,-430.0,-257.0,-18.0,215.0,-1287.0,-528.0,0.0,0.0,0.0,0.0,0.0,0.0,0.0,0.0,1
22.0,34.0,-576.0,-341.0,-68.0,193.0,-1471.0,-942.0,0.0,0.0,0.0,0.0,0.0,0.0,0.0,0.0,1
160.0,117.0,-626.0,-346.0,-58.0,240.0,-1258.0,-519.0,0.0,0.0,0.0,0.0,0.0,0.0,0.0,0.0,1
204.0,152.0,-255.0,-175.0,36.0,274.0,-885.0,-104.0,0.0,0.0,0.0,0.0,0.0,0.0,0.0,0.0,1
171.0,133.0,172.0,20.0,98.0,238.0,-403.0,-117.0,0.0,0.0,0.0,0.0,0.0,0.0,0.0,0.0,1
49.0,95.0,456.0,187.0,153.0,214.0,180.0,-134.0,0.0,0.0,0.0,0.0,0.0,0.0,0.0,0.0,1
-112.0,7.0,611.0,323.0,147.0,130.0,567.0,188.0,0.0,0.0,0.0,0.0,0.0,0.0,0.0,0.0,1
-304.0,-142.0,684.0,421.0,15.0,-118.0,795.0,266.0,0.0,0.0,0.0,0.0,0.0,0.0,0.0,0.0,1
-410.0,-232.0,437.0,268.0,-104.0,-202.0,1146.0,140.0,0.0,0.0,0.0,0.0,0.0,0.0,0.0,0.0,1
-214.0,-167.0,10.0,29.0,-89.0,-147.0,1198.0,-178.0,0.0,0.0,0.0,0.0,0.0,0.0,0.0,0.0,1
171.0,-4.0,-211.0,-120.0,-55.0,-153.0,1170.0,-489.0,0.0,0.0,0.0,0.0,0.0,0.0,0.0,0.0,1
283.0,181.0,-183.0,-135.0,-42.0,-162.0,1137.0,-641.0,0.0,0.0,0.0,0.0,0.0,0.0,0.0,0.0,1
309.0,186.0,-281.0,-201.0,-56.0,-181.0,962.0,-554.0,0.0,0.0,0.0,0.0,0.0,0.0,0.0,0.0,1
472.0,244.0,-226.0,-120.0,45.0,-5.0,910.0,-90.0,0.0,0.0,0.0,0.0,0.0,0.0,0.0,0.0,1
209.0,249.0,-4.0,-6.0,158.0,224.0,738.0,144.0,0.0,0.0,0.0,0.0,0.0,0.0,0.0,0.0,1
-163.0,117.0,31.0,-82.0,74.0,165.0,164.0,139.0,0.0,0.0,0.0,0.0,0.0,0.0,0.0,0.0,1
-312.0,40.0,35.0,-187.0,-97.0,51.0,-433.0,195.0,0.0,0.0,0.0,0.0,0.0,0.0,0.0,0.0,1
-442.0,-83.0,144.0,-173.0,-233.0,-115.0,-808.0,236.0,0.0,0.0,0.0,0.0,0.0,0.0,0.0,0.0,1
-252.0,-108.0,350.0,-42.0,-247.0,-169.0,-789.0,469.0,0.0,0.0,0.0,0.0,0.0,0.0,0.0,0.0,1
-24.0,-31.0,377.0,64.0,-115.0,-89.0,-742.0,619.0,0.0,0.0,0.0,0.0,0.0,0.0,0.0,0.0,1
-125.0,-50.0,111.0,-7.0,-108.0,-124.0,-1045.0,560.0,0.0,0.0,0.0,0.0,0.0,0.0,0.0,0.0,1
-409.0,-153.0,-250.0,-124.0,-114.0,-183.0,-1340.0,388.0,0.0,0.0,0.0,0.0,0.0,0.0,0.0,0.0,1
-378.0,-220.0,-456.0,-242.0,-149.0,-259.0,-1319.0,86.0,0.0,0.0,0.0,0.0,0.0,0.0,0.0,0.0,1
-105.0,-162.0,-371.0,-210.0,-155.0,-352.0,-1256.0,-469.0,0.0,0.0,0.0,0.0,0.0,0.0,0.0,0.0,1
101.0,-22.0,-201.0,-139.0,-88.0,-309.0,-1071.0,-1206.0,0.0,0.0,0.0,0.0,0.0,0.0,0.0,0.0,1
-121.0,-68.0,-94.0,-52.0,-28.0,-215.0,-686.0,-1256.0,0.0,0.0,0.0,0.0,0.0,0.0,0.0,0.0,1
-76.0,-117.0,-57.0,56.0,54.0,1.0,-84.0,-693.0,0.0,0.0,0.0,0.0,0.0,0.0,0.0,0.0,1
252.0,-112.0,-46.0,35.0,4.0,48.0,568.0,-120.0,0.0,0.0,0.0,0.0,0.0,0.0,0.0,0.0,1
460.0,-29.0,28.0,26.0,-64.0,12.0,1195.0,-5.0,0.0,0.0,0.0,0.0,0.0,0.0,0.0,0.0,1
264.0,-106.0,-44.0,-41.0,-97.0,83.0,1672.0,134.0,0.0,0.0,0.0,0.0,0.0,0.0,0.0,0.0,1
-62.0,-105.0,-85.0,-29.0,-26.0,136.0,1668.0,277.0,0.0,0.0,0.0,0.0,0.0,0.0,0.0,0.0,1
-224.0,52.0,-41.0,12.0,63.0,199.0,1562.0,313.0,0.0,0.0,0.0,0.0,0.0,0.0,0.0,0.0,1
-283.0,101.0,-63.0,-30.0,90.0,203.0,1365.0,102.0,0.0,0.0,0.0,0.0,0.0,0.0,0.0,0.0,1
-198.0,-14.0,-122.0,-51.0,70.0,91.0,938.0,-121.0,0.0,0.0,0.0,0.0,0.0,0.0,0.0,0.0,1
-245.0,-178.0,-299.0,-24.0,104.0,39.0,548.0,-204.0,0.0,0.0,0.0,0.0,0.0,0.0,0.0,0.0,1
-493.0,-291.0,-748.0,-143.0,101.0,48.0,358.0,-210.0,0.0,0.0,0.0,0.0,0.0,0.0,0.0,0.0,1
-550.0,-253.0,-947.0,-171.0,138.0,83.0,48.0,-125.0,0.0,0.0,0.0,0.0,0.0,0.0,0.0,0.0,1
-131.0,-34.0,-508.0,10.0,276.0,266.0,-199.0,56.0,0.0,0.0,0.0,0.0,0.0,0.0,0.0,0.0,1
284.0,138.0,123.0,193.0,403.0,484.0,-168.0,432.0,0.0,0.0,0.0,0.0,0.0,0.0,0.0,0.0,1
266.0,169.0,811.0,413.0,366.0,478.0,462.0,801.0,0.0,0.0,0.0,0.0,0.0,0.0,0.0,0.0,1
282.0,148.0,1146.0,530.0,177.0,232.0,-128.0,861.0,0.0,0.0,0.0,0.0,0.0,0.0,0.0,0.0,1
322.0,-38.0,913.0,307.0,-153.0,-156.0,-370.0,406.0,0.0,0.0,0.0,0.0,0.0,0.0,0.0,0.0,1
104.0,-214.0,369.0,42.0,-337.0,-324.0,-154.0,-39.0,0.0,0.0,0.0,0.0,0.0,0.0,0.0,0.0,1
-95.0,-202.0,-134.0,-316.0,-440.0,-336.0,-652.0,-330.0,0.0,0.0,0.0,0.0,0.0,0.0,0.0,0.0,1
-106.0,-113.0,-118.0,-302.0,-291.0,-216.0,-745.0,-221.0,0.0,0.0,0.0,0.0,0.0,0.0,0.0,0.0,1
-35.0,-47.0,391.0,122.0,-68.0,-219.0,-636.0,64.0,0.0,0.0,0.0,0.0,0.0,0.0,0.0,0.0,1
214.0,32.0,642.0,318.0,45.0,-193.0,-529.0,122.0,0.0,0.0,0.0,0.0,0.0,0.0,0.0,0.0,1
472.0,169.0,522.0,200.0,-33.0,-254.0,-514.0,-48.0,0.0,0.0,0.0,0.0,0.0,0.0,0.0,0.0,1
337.0,86.0,248.0,1.0,-305.0,-465.0,-669.0,-120.0,0.0,0.0,0.0,0.0,0.0,0.0,0.0,0.0,1
237.0,-42.0,-195.0,-139.0,-438.0,-576.0,-628.0,-137.0,0.0,0.0,0.0,0.0,0.0,0.0,0.0,0.0,1
-11.0,-31.0,-533.0,-253.0,-363.0,-494.0,186.0,-376.0,0.0,0.0,0.0,0.0,0.0,0.0,0.0,0.0,1
-300.0,29.0,-657.0,-314.0,-226.0,-337.0,941.0,-600.0,0.0,0.0,0.0,0.0,0.0,0.0,0.0,0.0,1
-224.0,17.0,-744.0,-376.0,-130.0,-137.0,819.0,-472.0,0.0,0.0,0.0,0.0,0.0,0.0,0.0,0.0,1
-229.0,-69.0,-803.0,-432.0,-123.0,48.0,371.0,-335.0,0.0,0.0,0.0,0.0,0.0,0.0,0.0,0.0,1
-317.0,18.0,-353.0,-230.0,43.0,327.0,-30.0,-357.0,0.0,0.0,0.0,0.0,0.0,0.0,0.0,0.0,1
-230.0,-17.0,-69.0,-121.0,119.0,382.0,-508.0,-193.0,0.0,0.0,0.0,0.0,0.0,0.0,0.0,0.0,1
-313.0,-258.0,-271.0,-210.0,25.0,197.0,-1144.0,-348.0,0.0,0.0,0.0,0.0,0.0,0.0,0.0,0.0,1
-328.0,-198.0,28.0,-6.0,91.0,143.0,-1575.0,-311.0,0.0,0.0,0.0,0.0,0.0,0.0,0.0,0.0,1
-127.0,10.0,388.0,188.0,114.0,158.0,-1527.0,144.0,0.0,0.0,0.0,0.0,0.0,0.0,0.0,0.0,1
117.0,49.0,57.0,-38.0,-60.0,-20.0,-602.0,261.0,0.0,0.0,0.0,0.0,0.0,0.0,0.0,0.0,1
259.0,82.0,-386.0,-334.0,-229.0,-198.0,-614.0,117.0,0.0,0.0,0.0,0.0,0.0,0.0,0.0,0.0,1
506.0,165.0,-336.0,-306.0,-164.0,-143.0,-1188.0,63.0,0.0,0.0,0.0,0.0,0.0,0.0,0.0,0.0,1
510.0,56.0,-279.0,-257.0,-165.0,-302.0,-1439.0,9.0,0.0,0.0,0.0,0.0,0.0,0.0,0.0,0.0,1
428.0,64.0,-148.0,-133.0,-71.0,-293.0,-1293.0,136.0,0.0,0.0,0.0,0.0,0.0,0.0,0.0,0.0,1
175.0,113.0,-59.0,-4.0,95.0,-48.0,-653.0,245.0,0.0,0.0,0.0,0.0,0.0,0.0,0.0,0.0,1
-318.0,35.0,-61.0,62.0,84.0,-13.0,-9.0,-51.0,0.0,0.0,0.0,0.0,0.0,0.0,0.0,0.0,1
-575.0,-71.0,-24.0,182.0,135.0,23.0,89.0,-314.0,0.0,0.0,0.0,0.0,0.0,0.0,0.0,0.0,1
-417.0,-232.0,-135.0,142.0,125.0,137.0,329.0,422.0,0.0,0.0,0.0,0.0,0.0,0.0,0.0,0.0,1
53.0,-306.0,-176.0,18.0,16.0,63.0,607.0,493.0,0.0,0.0,0.0,0.0,0.0,0.0,0.0,0.0,1
-1.0,-292.0,131.0,37.0,-34.0,52.0,674.0,-426.0,0.0,0.0,0.0,0.0,0.0,0.0,0.0,0.0,1
-201.0,-234.0,313.0,125.0,-89.0,14.0,666.0,-993.0,0.0,0.0,0.0,0.0,0.0,0.0,0.0,0.0,1
55.0,-70.0,445.0,201.0,-151.0,-35.0,748.0,-469.0,0.0,0.0,0.0,0.0,0.0,0.0,0.0,0.0,1
-234.0,-122.0,298.0,88.0,-203.0,-104.0,698.0,-38.0,0.0,0.0,0.0,0.0,0.0,0.0,0.0,0.0,1
-758.0,-208.0,28.0,-34.0,-141.0,-82.0,415.0,116.0,0.0,0.0,0.0,0.0,0.0,0.0,0.0,0.0,1
-554.0,-52.0,141.0,105.0,62.0,51.0,305.0,396.0,0.0,0.0,0.0,0.0,0.0,0.0,0.0,0.0,1
-54.0,40.0,235.0,143.0,170.0,202.0,257.0,467.0,0.0,0.0,0.0,0.0,0.0,0.0,0.0,0.0,1
-114.0,-48.0,359.0,117.0,194.0,263.0,179.0,269.0,0.0,0.0,0.0,0.0,0.0,0.0,0.0,0.0,1
-20.0,100.0,855.0,358.0,222.0,224.0,508.0,20.0,0.0,0.0,0.0,0.0,0.0,0.0,0.0,0.0,1
244.0,338.0,789.0,364.0,190.0,243.0,1265.0,176.0,0.0,0.0,0.0,0.0,0.0,0.0,0.0,0.0,1
214.0,283.0,18.0,113.0,104.0,161.0,1897.0,300.0,0.0,0.0,0.0,0.0,0.0,0.0,0.0,0.0,1
-255.0,34.0,-709.0,-311.0,-19.0,58.0,1431.0,-279.0,0.0,0.0,0.0,0.0,0.0,0.0,0.0,0.0,1
-383.0,-62.0,-887.0,-599.0,-145.0,8.0,1054.0,-543.0,0.0,0.0,0.0,0.0,0.0,0.0,0.0,0.0,1
-204.0,-34.0,-444.0,-379.0,-69.0,154.0,946.0,30.0,0.0,0.0,0.0,0.0,0.0,0.0,0.0,0.0,1
-181.0,-344.0,22.0,39.0,68.0,172.0,527.0,37.0,0.0,0.0,0.0,0.0,0.0,0.0,0.0,0.0,1
-65.0,-440.0,169.0,237.0,111.0,53.0,83.0,57.0,0.0,0.0,0.0,0.0,0.0,0.0,0.0,0.0,1
133.0,-269.0,145.0,238.0,94.0,-10.0,-128.0,353.0,0.0,0.0,0.0,0.0,0.0,0.0,0.0,0.0,1
250.0,13.0,-201.0,70.0,2.0,-160.0,-524.0,57.0,0.0,0.0,0.0,0.0,0.0,0.0,0.0,0.0,1
533.0,365.0,-459.0,-67.0,-56.0,-237.0,-749.0,-262.0,0.0,0.0,0.0,0.0,0.0,0.0,0.0,0.0,1
1028.0,447.0,-517.0,-231.0,-98.0,-235.0,-745.0,65.0,0.0,0.0,0.0,0.0,0.0,0.0,0.0,0.0,1
1054.0,419.0,146.0,-130.0,-171.0,-228.0,-780.0,335.0,0.0,0.0,0.0,0.0,0.0,0.0,0.0,0.0,1
222.0,-128.0,774.0,111.0,-237.0,-254.0,-806.0,130.0,0.0,0.0,0.0,0.0,0.0,0.0,0.0,0.0,1
-621.0,-825.0,123.0,-18.0,-261.0,-221.0,-988.0,-633.0,0.0,0.0,0.0,0.0,0.0,0.0,0.0,0.0,1
-818.0,-713.0,-494.0,-184.0,-122.0,-26.0,-894.0,-807.0,0.0,0.0,0.0,0.0,0.0,0.0,0.0,0.0,1
-679.0,-277.0,-222.0,-83.0,79.0,225.0,-705.0,-200.0,0.0,0.0,0.0,0.0,0.0,0.0,0.0,0.0,1
-273.0,-16.0,-130.0,-100.0,97.0,225.0,-698.0,219.0,0.0,0.0,0.0,0.0,0.0,0.0,0.0,0.0,1
-60.0,238.0,40.0,-110.0,-5.0,-135.0,-879.0,201.0,0.0,0.0,0.0,0.0,0.0,0.0,0.0,0.0,1
-266.0,243.0,283.0,47.0,-94.0,-362.0,-884.0,90.0,0.0,0.0,0.0,0.0,0.0,0.0,0.0,0.0,1
-380.0,14.0,29.0,33.0,-121.0,-291.0,-154.0,335.0,0.0,0.0,0.0,0.0,0.0,0.0,0.0,0.0,1
-199.0,19.0,-363.0,-170.0,-200.0,-302.0,211.0,368.0,0.0,0.0,0.0,0.0,0.0,0.0,0.0,0.0,1
215.0,268.0,-61.0,10.0,-151.0,-179.0,404.0,198.0,0.0,0.0,0.0,0.0,0.0,0.0,0.0,0.0,1
306.0,229.0,172.0,93.0,-160.0,-263.0,437.0,-143.0,0.0,0.0,0.0,0.0,0.0,0.0,0.0,0.0,1
367.0,103.0,-41.0,-6.0,-80.0,-153.0,489.0,-258.0,0.0,0.0,0.0,0.0,0.0,0.0,0.0,0.0,1
651.0,106.0,-339.0,-157.0,15.0,47.0,610.0,239.0,0.0,0.0,0.0,0.0,0.0,0.0,0.0,0.0,1
483.0,16.0,-407.0,-271.0,-63.0,-51.0,305.0,313.0,0.0,0.0,0.0,0.0,0.0,0.0,0.0,0.0,1
-96.0,-143.0,-334.0,-278.0,-167.0,-239.0,-57.0,-10.0,0.0,0.0,0.0,0.0,0.0,0.0,0.0,0.0,1
-481.0,-104.0,-162.0,-105.0,-20.0,-124.0,-117.0,-368.0,0.0,0.0,0.0,0.0,0.0,0.0,0.0,0.0,1
-569.0,-219.0,-267.0,-49.0,162.0,92.0,-202.0,-916.0,0.0,0.0,0.0,0.0,0.0,0.0,0.0,0.0,1
-599.0,-225.0,-494.0,-99.0,214.0,141.0,-131.0,-843.0,0.0,0.0,0.0,0.0,0.0,0.0,0.0,0.0,1
-380.0,-68.0,-712.0,-268.0,102.0,180.0,108.0,-284.0,0.0,0.0,0.0,0.0,0.0,0.0,0.0,0.0,1
-146.0,4.0,-1073.0,-465.0,-88.0,143.0,-69.0,-101.0,0.0,0.0,0.0,0.0,0.0,0.0,0.0,0.0,1
21.0,113.0,-1066.0,-484.0,-202.0,136.0,-315.0,88.0,0.0,0.0,0.0,0.0,0.0,0.0,0.0,0.0,1
-13.0,9.0,-629.0,-370.0,-211.0,-31.0,-357.0,277.0,0.0,0.0,0.0,0.0,0.0,0.0,0.0,0.0,1
79.0,-72.0,-128.0,-65.0,-47.0,-11.0,-153.0,282.0,0.0,0.0,0.0,0.0,0.0,0.0,0.0,0.0,1
58.0,75.0,110.0,265.0,96.0,-52.0,-138.0,297.0,0.0,0.0,0.0,0.0,0.0,0.0,0.0,0.0,1
-141.0,309.0,395.0,340.0,6.0,-195.0,-51.0,208.0,0.0,0.0,0.0,0.0,0.0,0.0,0.0,0.0,1
177.0,166.0,669.0,183.0,-106.0,-121.0,137.0,-133.0,0.0,0.0,0.0,0.0,0.0,0.0,0.0,0.0,1
774.0,-123.0,1059.0,214.0,132.0,223.0,417.0,-112.0,0.0,0.0,0.0,0.0,0.0,0.0,0.0,0.0,1
1045.0,-111.0,2466.0,905.0,431.0,274.0,266.0,-176.0,0.0,0.0,0.0,0.0,0.0,0.0,0.0,0.0,1
644.0,-246.0,3349.0,1501.0,467.0,197.0,51.0,-169.0,0.0,0.0,0.0,0.0,0.0,0.0,0.0,0.0,1
16.0,-525.0,2135.0,927.0,103.0,18.0,-170.0,32.0,0.0,0.0,0.0,0.0,0.0,0.0,0.0,0.0,1
-595.0,-625.0,448.0,-86.0,-425.0,-439.0,-346.0,-86.0,0.0,0.0,0.0,0.0,0.0,0.0,0.0,0.0,1
-1049.0,-425.0,-438.0,-505.0,-560.0,-841.0,-624.0,-493.0,0.0,0.0,0.0,0.0,0.0,0.0,0.0,0.0,1
-900.0,-78.0,-624.0,-426.0,-358.0,-756.0,-513.0,-447.0,0.0,0.0,0.0,0.0,0.0,0.0,0.0,0.0,1
-299.0,196.0,-567.0,-248.0,-128.0,-376.0,110.0,91.0,0.0,0.0,0.0,0.0,0.0,0.0,0.0,0.0,1
273.0,312.0,-534.0,-131.0,32.0,-100.0,428.0,522.0,0.0,0.0,0.0,0.0,0.0,0.0,0.0,0.0,1
489.0,272.0,-656.0,-190.0,57.0,166.0,513.0,727.0,0.0,0.0,0.0,0.0,0.0,0.0,0.0,0.0,1
181.0,67.0,-800.0,-350.0,-81.0,172.0,430.0,674.0,0.0,0.0,0.0,0.0,0.0,0.0,0.0,0.0,1
-430.0,-205.0,-976.0,-528.0,-224.0,111.0,181.0,154.0,0.0,0.0,0.0,0.0,0.0,0.0,0.0,0.0,1
-950.0,-305.0,-903.0,-492.0,-223.0,124.0,-7.0,-549.0,0.0,0.0,0.0,0.0,0.0,0.0,0.0,0.0,1
-824.0,-78.0,-521.0,-218.0,-75.0,199.0,-209.0,-1000.0,0.0,0.0,0.0,0.0,0.0,0.0,0.0,0.0,1
-287.0,44.0,-401.0,-98.0,7.0,108.0,-309.0,-576.0,0.0,0.0,0.0,0.0,0.0,0.0,0.0,0.0,1
-26.0,-41.0,-517.0,-96.0,22.0,152.0,-97.0,-20.0,0.0,0.0,0.0,0.0,0.0,0.0,0.0,0.0,1
111.0,-101.0,-633.0,-183.0,-31.0,214.0,94.0,269.0,0.0,0.0,0.0,0.0,0.0,0.0,0.0,0.0,1
471.0,38.0,-577.0,-237.0,-50.0,337.0,267.0,536.0,0.0,0.0,0.0,0.0,0.0,0.0,0.0,0.0,1
741.0,149.0,-468.0,-169.0,8.0,455.0,289.0,760.0,0.0,0.0,0.0,0.0,0.0,0.0,0.0,0.0,1
453.0,98.0,-360.0,-114.0,17.0,306.0,223.0,725.0,0.0,0.0,0.0,0.0,0.0,0.0,0.0,0.0,1
228.0,15.0,-285.0,-84.0,6.0,109.0,110.0,575.0,0.0,0.0,0.0,0.0,0.0,0.0,0.0,0.0,1
308.0,130.0,-46.0,100.0,97.0,15.0,37.0,381.0,0.0,0.0,0.0,0.0,0.0,0.0,0.0,0.0,1
350.0,218.0,241.0,246.0,247.0,182.0,187.0,4.0,0.0,0.0,0.0,0.0,0.0,0.0,0.0,0.0,1
164.0,93.0,172.0,231.0,268.0,192.0,107.0,-781.0,0.0,0.0,0.0,0.0,0.0,0.0,0.0,0.0,1
-64.0,-99.0,-151.0,117.0,152.0,-53.0,-416.0,-1214.0,0.0,0.0,0.0,0.0,0.0,0.0,0.0,0.0,1
-304.0,-346.0,-439.0,-24.0,20.0,-280.0,-769.0,-1302.0,0.0,0.0,0.0,0.0,0.0,0.0,0.0,0.0,1
-397.0,-176.0,-372.0,-125.0,-211.0,-491.0,-404.0,-1222.0,0.0,0.0,0.0,0.0,0.0,0.0,0.0,0.0,1
-175.0,285.0,148.0,-36.0,-242.0,-424.0,-220.0,-578.0,0.0,0.0,0.0,0.0,0.0,0.0,0.0,0.0,1
-121.0,327.0,575.0,75.0,-77.0,-146.0,-262.0,-76.0,0.0,0.0,0.0,0.0,0.0,0.0,0.0,0.0,1
-103.0,190.0,788.0,145.0,46.0,66.0,65.0,339.0,0.0,0.0,0.0,0.0,0.0,0.0,0.0,0.0,1
-17.0,7.0,921.0,280.0,163.0,167.0,128.0,549.0,0.0,0.0,0.0,0.0,0.0,0.0,0.0,0.0,1
-88.0,-328.0,873.0,229.0,-19.0,-128.0,43.0,262.0,0.0,0.0,0.0,0.0,0.0,0.0,0.0,0.0,1
-162.0,-472.0,976.0,148.0,-315.0,-491.0,169.0,332.0,0.0,0.0,0.0,0.0,0.0,0.0,0.0,0.0,1
-100.0,-470.0,609.0,4.0,-309.0,-316.0,472.0,722.0,0.0,0.0,0.0,0.0,0.0,0.0,0.0,0.0,1
6.0,-190.0,226.0,37.0,13.0,128.0,610.0,863.0,0.0,0.0,0.0,0.0,0.0,0.0,0.0,0.0,1
163.0,86.0,-6.0,137.0,270.0,413.0,786.0,924.0,0.0,0.0,0.0,0.0,0.0,0.0,0.0,0.0,1
328.0,210.0,-327.0,14.0,278.0,526.0,757.0,1060.0,0.0,0.0,0.0,0.0,0.0,0.0,0.0,0.0,1
297.0,279.0,-602.0,-216.0,41.0,250.0,117.0,332.0,0.0,0.0,0.0,0.0,0.0,0.0,0.0,0.0,1
23.0,96.0,-471.0,-378.0,-295.0,-236.0,-622.0,-682.0,0.0,0.0,0.0,0.0,0.0,0.0,0.0,0.0,1
-82.0,30.0,159.0,-55.0,-173.0,-260.0,-881.0,-615.0,0.0,0.0,0.0,0.0,0.0,0.0,0.0,0.0,1
-441.0,-126.0,569.0,246.0,-59.0,-298.0,-978.0,-473.0,0.0,0.0,0.0,0.0,0.0,0.0,0.0,0.0,1
-535.0,-463.0,180.0,88.0,-189.0,-487.0,-961.0,-237.0,0.0,0.0,0.0,0.0,0.0,0.0,0.0,0.0,1
-214.0,-378.0,-199.0,97.0,-114.0,-432.0,-839.0,-110.0,0.0,0.0,0.0,0.0,0.0,0.0,0.0,0.0,1
-26.0,-12.0,-451.0,133.0,83.0,-185.0,-576.0,-414.0,0.0,0.0,0.0,0.0,0.0,0.0,0.0,0.0,1
-164.0,91.0,-612.0,-89.0,23.0,-190.0,-539.0,-884.0,0.0,0.0,0.0,0.0,0.0,0.0,0.0,0.0,1
-332.0,-1.0,-593.0,-403.0,-238.0,-267.0,-507.0,-1316.0,0.0,0.0,0.0,0.0,0.0,0.0,0.0,0.0,1
-279.0,32.0,-149.0,-320.0,-194.0,-65.0,-36.0,-1023.0,0.0,0.0,0.0,0.0,0.0,0.0,0.0,0.0,1
-274.0,19.0,119.0,-82.0,35.0,121.0,416.0,-194.0,0.0,0.0,0.0,0.0,0.0,0.0,0.0,0.0,1
-242.0,-83.0,-273.0,-212.0,-3.0,-103.0,232.0,36.0,0.0,0.0,0.0,0.0,0.0,0.0,0.0,0.0,1
-51.0,-15.0,-675.0,-338.0,-58.0,-182.0,286.0,169.0,0.0,0.0,0.0,0.0,0.0,0.0,0.0,0.0,1
166.0,317.0,-500.0,-211.0,25.0,-95.0,587.0,266.0,0.0,0.0,0.0,0.0,0.0,0.0,0.0,0.0,1
261.0,439.0,69.0,57.0,189.0,191.0,878.0,448.0,0.0,0.0,0.0,0.0,0.0,0.0,0.0,0.0,1
269.0,266.0,516.0,289.0,184.0,190.0,751.0,634.0,0.0,0.0,0.0,0.0,0.0,0.0,0.0,0.0,1
156.0,-2.0,503.0,235.0,51.0,100.0,398.0,817.0,0.0,0.0,0.0,0.0,0.0,0.0,0.0,0.0,1
-168.0,-312.0,233.0,95.0,-111.0,49.0,122.0,771.0,0.0,0.0,0.0,0.0,0.0,0.0,0.0,0.0,1
-232.0,-480.0,-517.0,-228.0,-298.0,-152.0,-100.0,-34.0,0.0,0.0,0.0,0.0,0.0,0.0,0.0,0.0,1
162.0,-269.0,-1112.0,-478.0,-297.0,-91.0,-141.0,-662.0,0.0,0.0,0.0,0.0,0.0,0.0,0.0,0.0,1
155.0,-94.0,-668.0,-313.0,-101.0,125.0,-240.0,-622.0,0.0,0.0,0.0,0.0,0.0,0.0,0.0,0.0,1
-40.0,-182.0,-123.0,-140.0,-80.0,129.0,-325.0,-66.0,0.0,0.0,0.0,0.0,0.0,0.0,0.0,0.0,1
17.0,-76.0,430.0,107.0,-16.0,124.0,-71.0,369.0,0.0,0.0,0.0,0.0,0.0,0.0,0.0,0.0,1
-190.0,87.0,1102.0,329.0,81.0,176.0,362.0,681.0,0.0,0.0,0.0,0.0,0.0,0.0,0.0,0.0,1
14.0,73.0,840.0,142.0,11.0,186.0,257.0,649.0,0.0,0.0,0.0,0.0,0.0,0.0,0.0,0.0,1
586.0,21.0,13.0,-191.0,-85.0,134.0,-233.0,33.0,0.0,0.0,0.0,0.0,0.0,0.0,0.0,0.0,1
962.0,-43.0,-449.0,-312.0,-129.0,64.0,-363.0,-630.0,0.0,0.0,0.0,0.0,0.0,0.0,0.0,0.0,1
567.0,4.0,-444.0,-131.0,-60.0,-64.0,-98.0,-489.0,0.0,0.0,0.0,0.0,0.0,0.0,0.0,0.0,1
-362.0,3.0,-313.0,-7.0,21.0,-73.0,85.0,-226.0,0.0,0.0,0.0,0.0,0.0,0.0,0.0,0.0,1
-832.0,-21.0,-278.0,-85.0,-3.0,-106.0,129.0,5.0,0.0,0.0,0.0,0.0,0.0,0.0,0.0,0.0,1
-1120.0,-98.0,10.0,6.0,-16.0,-175.0,60.0,240.0,0.0,0.0,0.0,0.0,0.0,0.0,0.0,0.0,1
-888.0,-201.0,132.0,44.0,-40.0,-154.0,-105.0,170.0,0.0,0.0,0.0,0.0,0.0,0.0,0.0,0.0,1
-275.0,-150.0,233.0,195.0,104.0,52.0,-75.0,139.0,0.0,0.0,0.0,0.0,0.0,0.0,0.0,0.0,1
228.0,-106.0,193.0,187.0,184.0,170.0,-56.0,-69.0,0.0,0.0,0.0,0.0,0.0,0.0,0.0,0.0,1
256.0,-164.0,-216.0,-33.0,123.0,165.0,-274.0,-500.0,0.0,0.0,0.0,0.0,0.0,0.0,0.0,0.0,1
197.0,-48.0,-659.0,-333.0,-65.0,-52.0,-544.0,-707.0,0.0,0.0,0.0,0.0,0.0,0.0,0.0,0.0,1
126.0,51.0,-880.0,-481.0,-146.0,-139.0,-334.0,-363.0,0.0,0.0,0.0,0.0,0.0,0.0,0.0,0.0,1
296.0,224.0,-627.0,-279.0,34.0,64.0,-80.0,243.0,0.0,0.0,0.0,0.0,0.0,0.0,0.0,0.0,1
390.0,400.0,522.0,304.0,208.0,91.0,-167.0,770.0,0.0,0.0,0.0,0.0,0.0,0.0,0.0,0.0,1
334.0,353.0,1700.0,903.0,308.0,60.0,1.0,1328.0,0.0,0.0,0.0,0.0,0.0,0.0,0.0,0.0,1
-1.0,-152.0,1111.0,645.0,206.0,12.0,-126.0,824.0,0.0,0.0,0.0,0.0,0.0,0.0,0.0,0.0,1
-370.0,-328.0,155.0,103.0,-43.0,-275.0,-557.0,-469.0,0.0,0.0,0.0,0.0,0.0,0.0,0.0,0.0,1
-592.0,-234.0,-410.0,-322.0,-285.0,-506.0,-632.0,-1234.0,0.0,0.0,0.0,0.0,0.0,0.0,0.0,0.0,1
-620.0,-219.0,-731.0,-506.0,-352.0,-495.0,-413.0,-1554.0,0.0,0.0,0.0,0.0,0.0,0.0,0.0,0.0,1
-15.0,-53.0,-531.0,-251.0,-223.0,-359.0,-62.0,-1085.0,0.0,0.0,0.0,0.0,0.0,0.0,0.0,0.0,1
218.0,-56.0,-237.0,11.0,-132.0,-325.0,32.0,-389.0,0.0,0.0,0.0,0.0,0.0,0.0,0.0,0.0,1
-94.0,-251.0,-248.0,-53.0,-212.0,-331.0,-6.0,-176.0,0.0,0.0,0.0,0.0,0.0,0.0,0.0,0.0,1
-150.0,-175.0,-192.0,-129.0,-278.0,-406.0,-44.0,-278.0,0.0,0.0,0.0,0.0,0.0,0.0,0.0,0.0,1
-17.0,-60.0,-303.0,-269.0,-287.0,-444.0,10.0,-408.0,0.0,0.0,0.0,0.0,0.0,0.0,0.0,0.0,1
268.0,200.0,-171.0,-146.0,-29.0,-57.0,498.0,251.0,0.0,0.0,0.0,0.0,0.0,0.0,0.0,0.0,1
243.0,266.0,125.0,20.0,129.0,141.0,548.0,412.0,0.0,0.0,0.0,0.0,0.0,0.0,0.0,0.0,1
-70.0,6.0,177.0,83.0,182.0,238.0,335.0,428.0,0.0,0.0,0.0,0.0,0.0,0.0,0.0,0.0,1
-162.0,6.0,167.0,105.0,198.0,297.0,131.0,524.0,0.0,0.0,0.0,0.0,0.0,0.0,0.0,0.0,1
-205.0,32.0,68.0,-145.0,76.0,308.0,-37.0,56.0,0.0,0.0,0.0,0.0,0.0,0.0,0.0,0.0,1
-147.0,-35.0,65.0,-247.0,-20.0,253.0,-236.0,-131.0,0.0,0.0,0.0,0.0,0.0,0.0,0.0,0.0,1
129.0,19.0,122.0,-89.0,108.0,287.0,-97.0,468.0,0.0,0.0,0.0,0.0,0.0,0.0,0.0,0.0,1
121.0,187.0,533.0,176.0,161.0,293.0,169.0,764.0,0.0,0.0,0.0,0.0,0.0,0.0,0.0,0.0,1
122.0,171.0,838.0,312.0,11.0,227.0,215.0,543.0,0.0,0.0,0.0,0.0,0.0,0.0,0.0,0.0,1
315.0,15.0,502.0,66.0,-179.0,-54.0,-107.0,-80.0,0.0,0.0,0.0,0.0,0.0,0.0,0.0,0.0,1
306.0,-138.0,-51.0,-195.0,-357.0,-309.0,-332.0,-258.0,0.0,0.0,0.0,0.0,0.0,0.0,0.0,0.0,1
125.0,-293.0,-652.0,-339.0,-354.0,-256.0,-173.0,225.0,0.0,0.0,0.0,0.0,0.0,0.0,0.0,0.0,1
141.0,-298.0,-842.0,-311.0,-167.0,-94.0,-20.0,524.0,0.0,0.0,0.0,0.0,0.0,0.0,0.0,0.0,1
149.0,-142.0,-543.0,-152.0,-64.0,-73.0,127.0,539.0,0.0,0.0,0.0,0.0,0.0,0.0,0.0,0.0,1
57.0,-19.0,-117.0,-11.0,-62.0,-112.0,81.0,70.0,0.0,0.0,0.0,0.0,0.0,0.0,0.0,0.0,1
-233.0,-96.0,-38.0,-19.0,-203.0,-356.0,-163.0,-561.0,0.0,0.0,0.0,0.0,0.0,0.0,0.0,0.0,1
-397.0,-156.0,-184.0,-50.0,-104.0,-186.0,14.0,-956.0,0.0,0.0,0.0,0.0,0.0,0.0,0.0,0.0,1
-59.0,11.0,-125.0,-1.0,160.0,235.0,402.0,-450.0,0.0,0.0,0.0,0.0,0.0,0.0,0.0,0.0,1
