CH1,CH2,CH3,CH4,CH5,CH6,CH7,CH8,CH9,CH10,CH11,CH12,CH13,CH14,CH15,CH16,label
-4583.0,-9134.0,-4752.0,-2518.0,3041.0,989.0,1054.0,604.0,0.0,0.0,0.0,0.0,0.0,0.0,0.0,0.0,0
-2949.0,-6044.0,-3121.0,-1651.0,2019.0,654.0,694.0,393.0,0.0,0.0,0.0,0.0,0.0,0.0,0.0,0.0,0
-1675.0,-3522.0,-1792.0,-955.0,1166.0,373.0,401.0,234.0,0.0,0.0,0.0,0.0,0.0,0.0,0.0,0.0,0
-711.0,-1475.0,-752.0,-405.0,469.0,155.0,163.0,99.0,0.0,0.0,0.0,0.0,0.0,0.0,0.0,0.0,0
46.0,112.0,72.0,32.0,-73.0,-27.0,-32.0,-1.0,0.0,0.0,0.0,0.0,0.0,0.0,0.0,0.0,0
612.0,1322.0,699.0,366.0,-484.0,-166.0,-176.0,-70.0,0.0,0.0,0.0,0.0,0.0,0.0,0.0,0.0,0
1022.0,2229.0,1168.0,618.0,-775.0,-261.0,-281.0,-132.0,0.0,0.0,0.0,0.0,0.0,0.0,0.0,0.0,0
1299.0,2854.0,1500.0,785.0,-983.0,-330.0,-349.0,-169.0,0.0,0.0,0.0,0.0,0.0,0.0,0.0,0.0,0
1441.0,3253.0,1691.0,876.0,-1116.0,-379.0,-393.0,-190.0,0.0,0.0,0.0,0.0,0.0,0.0,0.0,0.0,0
1482.0,3468.0,1767.0,907.0,-1190.0,-407.0,-423.0,-212.0,0.0,0.0,0.0,0.0,0.0,0.0,0.0,0.0,0
1486.0,3497.0,1771.0,907.0,-1213.0,-413.0,-437.0,-223.0,0.0,0.0,0.0,0.0,0.0,0.0,0.0,0.0,0
1473.0,3424.0,1727.0,883.0,-1187.0,-414.0,-433.0,-230.0,0.0,0.0,0.0,0.0,0.0,0.0,0.0,0.0,0
1441.0,3273.0,1640.0,836.0,-1127.0,-402.0,-409.0,-227.0,0.0,0.0,0.0,0.0,0.0,0.0,0.0,0.0,0
1372.0,3034.0,1523.0,781.0,-1056.0,-371.0,-386.0,-230.0,0.0,0.0,0.0,0.0,0.0,0.0,0.0,0.0,0
1312.0,2773.0,1393.0,719.0,-972.0,-337.0,-359.0,-239.0,0.0,0.0,0.0,0.0,0.0,0.0,0.0,0.0,0
1276.0,2530.0,1243.0,647.0,-870.0,-299.0,-323.0,-247.0,0.0,0.0,0.0,0.0,0.0,0.0,0.0,0.0,0
1250.0,2231.0,1077.0,566.0,-763.0,-259.0,-291.0,-261.0,0.0,0.0,0.0,0.0,0.0,0.0,0.0,0.0,0
1190.0,1885.0,915.0,472.0,-642.0,-213.0,-262.0,-260.0,0.0,0.0,0.0,0.0,0.0,0.0,0.0,0.0,0
1107.0,1516.0,745.0,386.0,-516.0,-166.0,-216.0,-242.0,0.0,0.0,0.0,0.0,0.0,0.0,0.0,0.0,0
975.0,1129.0,554.0,278.0,-389.0,-126.0,-177.0,-228.0,0.0,0.0,0.0,0.0,0.0,0.0,0.0,0.0,0
780.0,735.0,356.0,165.0,-270.0,-98.0,-136.0,-190.0,0.0,0.0,0.0,0.0,0.0,0.0,0.0,0.0,0
543.0,341.0,159.0,62.0,-148.0,-64.0,-99.0,-146.0,0.0,0.0,0.0,0.0,0.0,0.0,0.0,0.0,0
281.0,-65.0,-45.0,-56.0,-22.0,-29.0,-47.0,-83.0,0.0,0.0,0.0,0.0,0.0,0.0,0.0,0.0,0
-17.0,-450.0,-237.0,-157.0,95.0,13.0,4.0,-32.0,0.0,0.0,0.0,0.0,0.0,0.0,0.0,0.0,0
-281.0,-822.0,-417.0,-252.0,214.0,47.0,45.0,6.0,0.0,0.0,0.0,0.0,0.0,0.0,0.0,0.0,0
-519.0,-1168.0,-596.0,-338.0,326.0,70.0,82.0,50.0,0.0,0.0,0.0,0.0,0.0,0.0,0.0,0.0,0
-737.0,-1471.0,-750.0,-425.0,424.0,86.0,113.0,73.0,0.0,0.0,0.0,0.0,0.0,0.0,0.0,0.0,0
-881.0,-1752.0,-895.0,-508.0,499.0,117.0,146.0,90.0,0.0,0.0,0.0,0.0,0.0,0.0,0.0,0.0,0
-1038.0,-1977.0,-1017.0,-582.0,550.0,145.0,176.0,135.0,0.0,0.0,0.0,0.0,0.0,0.0,0.0,0.0,0
-1229.0,-2127.0,-1101.0,-632.0,607.0,172.0,206.0,165.0,0.0,0.0,0.0,0.0,0.0,0.0,0.0,0.0,0
-1346.0,-2222.0,-1153.0,-654.0,641.0,182.0,212.0,188.0,0.0,0.0,0.0,0.0,0.0,0.0,0.0,0.0,0
-1396.0,-2246.0,-1168.0,-656.0,659.0,193.0,216.0,192.0,0.0,0.0,0.0,0.0,0.0,0.0,0.0,0.0,0
-1402.0,-2205.0,-1151.0,-640.0,648.0,206.0,222.0,189.0,0.0,0.0,0.0,0.0,0.0,0.0,0.0,0.0,0
-1361.0,-2099.0,-1097.0,-607.0,631.0,206.0,217.0,177.0,0.0,0.0,0.0,0.0,0.0,0.0,0.0,0.0,0
-1244.0,-1934.0,-1016.0,-563.0,594.0,184.0,202.0,152.0,0.0,0.0,0.0,0.0,0.0,0.0,0.0,0.0,0
-1073.0,-1742.0,-910.0,-517.0,534.0,154.0,177.0,110.0,0.0,0.0,0.0,0.0,0.0,0.0,0.0,0.0,0
-884.0,-1515.0,-797.0,-454.0,469.0,166.0,153.0,81.0,0.0,0.0,0.0,0.0,0.0,0.0,0.0,0.0,0
-679.0,-1266.0,-673.0,-383.0,395.0,142.0,128.0,39.0,0.0,0.0,0.0,0.0,0.0,0.0,0.0,0.0,0
-451.0,-1038.0,-562.0,-317.0,324.0,97.0,105.0,0.0,0.0,0.0,0.0,0.0,0.0,0.0,0.0,0.0,0
-268.0,-830.0,-450.0,-248.0,249.0,66.0,72.0,-20.0,0.0,0.0,0.0,0.0,0.0,0.0,0.0,0.0,0
-157.0,-632.0,-349.0,-195.0,185.0,44.0,43.0,-24.0,0.0,0.0,0.0,0.0,0.0,0.0,0.0,0.0,0
-88.0,-465.0,-255.0,-138.0,135.0,21.0,19.0,-32.0,0.0,0.0,0.0,0.0,0.0,0.0,0.0,0.0,0
-45.0,-320.0,-170.0,-88.0,94.0,-8.0,4.0,-18.0,0.0,0.0,0.0,0.0,0.0,0.0,0.0,0.0,0
-75.0,-207.0,-114.0,-49.0,50.0,-31.0,-4.0,-4.0,0.0,0.0,0.0,0.0,0.0,0.0,0.0,0.0,0
-101.0,-128.0,-66.0,-17.0,20.0,-43.0,-11.0,5.0,0.0,0.0,0.0,0.0,0.0,0.0,0.0,0.0,0
-143.0,-79.0,-40.0,0.0,-6.0,-43.0,-24.0,13.0,0.0,0.0,0.0,0.0,0.0,0.0,0.0,0.0,0
-190.0,-37.0,-22.0,6.0,-23.0,-42.0,-27.0,22.0,0.0,0.0,0.0,0.0,0.0,0.0,0.0,0.0,0
-226.0,-3.0,-4.0,12.0,-35.0,-47.0,-30.0,27.0,0.0,0.0,0.0,0.0,0.0,0.0,0.0,0.0,0
-261.0,18.0,8.0,16.0,-55.0,-46.0,-38.0,31.0,0.0,0.0,0.0,0.0,0.0,0.0,0.0,0.0,0
-281.0,54.0,17.0,22.0,-69.0,-55.0,-29.0,38.0,0.0,0.0,0.0,0.0,0.0,0.0,0.0,0.0,0
-276.0,98.0,37.0,20.0,-87.0,-71.0,-34.0,42.0,0.0,0.0,0.0,0.0,0.0,0.0,0.0,0.0,0
-239.0,153.0,56.0,22.0,-105.0,-75.0,-48.0,29.0,0.0,0.0,0.0,0.0,0.0,0.0,0.0,0.0,0
-164.0,221.0,84.0,37.0,-135.0,-80.0,-55.0,17.0,0.0,0.0,0.0,0.0,0.0,0.0,0.0,0.0,0
-78.0,317.0,124.0,68.0,-150.0,-85.0,-66.0,-11.0,0.0,0.0,0.0,0.0,0.0,0.0,0.0,0.0,0
48.0,423.0,169.0,113.0,-173.0,-92.0,-82.0,-46.0,0.0,0.0,0.0,0.0,0.0,0.0,0.0,0.0,0
206.0,525.0,216.0,142.0,-203.0,-96.0,-99.0,-81.0,0.0,0.0,0.0,0.0,0.0,0.0,0.0,0.0,0
378.0,637.0,284.0,176.0,-221.0,-94.0,-105.0,-115.0,0.0,0.0,0.0,0.0,0.0,0.0,0.0,0.0,0
532.0,736.0,344.0,201.0,-246.0,-91.0,-114.0,-136.0,0.0,0.0,0.0,0.0,0.0,0.0,0.0,0.0,0
658.0,802.0,389.0,214.0,-280.0,-97.0,-125.0,-166.0,0.0,0.0,0.0,0.0,0.0,0.0,0.0,0.0,0
718.0,838.0,419.0,224.0,-305.0,-109.0,-138.0,-180.0,0.0,0.0,0.0,0.0,0.0,0.0,0.0,0.0,0
744.0,856.0,438.0,222.0,-319.0,-115.0,-148.0,-190.0,0.0,0.0,0.0,0.0,0.0,0.0,0.0,0.0,0
743.0,835.0,432.0,218.0,-317.0,-108.0,-136.0,-177.0,0.0,0.0,0.0,0.0,0.0,0.0,0.0,0.0,0
685.0,772.0,416.0,204.0,-308.0,-110.0,-124.0,-159.0,0.0,0.0,0.0,0.0,0.0,0.0,0.0,0.0,0
562.0,690.0,387.0,178.0,-299.0,-105.0,-117.0,-133.0,0.0,0.0,0.0,0.0,0.0,0.0,0.0,0.0,0
433.0,586.0,321.0,148.0,-253.0,-74.0,-100.0,-112.0,0.0,0.0,0.0,0.0,0.0,0.0,0.0,0.0,0
313.0,453.0,233.0,95.0,-222.0,-66.0,-85.0,-89.0,0.0,0.0,0.0,0.0,0.0,0.0,0.0,0.0,0
179.0,313.0,152.0,38.0,-186.0,-70.0,-79.0,-66.0,0.0,0.0,0.0,0.0,0.0,0.0,0.0,0.0,0
53.0,179.0,67.0,7.0,-138.0,-63.0,-63.0,-49.0,0.0,0.0,0.0,0.0,0.0,0.0,0.0,0.0,0
-64.0,57.0,-11.0,-35.0,-106.0,-66.0,-50.0,-29.0,0.0,0.0,0.0,0.0,0.0,0.0,0.0,0.0,0
-183.0,-43.0,-63.0,-68.0,-74.0,-65.0,-48.0,-11.0,0.0,0.0,0.0,0.0,0.0,0.0,0.0,0.0,0
-261.0,-121.0,-99.0,-80.0,-44.0,-50.0,-42.0,3.0,0.0,0.0,0.0,0.0,0.0,0.0,0.0,0.0,0
-298.0,-169.0,-120.0,-87.0,-23.0,-41.0,-32.0,1.0,0.0,0.0,0.0,0.0,0.0,0.0,0.0,0.0,0
-297.0,-188.0,-119.0,-84.0,-8.0,-30.0,-25.0,8.0,0.0,0.0,0.0,0.0,0.0,0.0,0.0,0.0,0
-274.0,-175.0,-110.0,-71.0,4.0,-15.0,-13.0,-3.0,0.0,0.0,0.0,0.0,0.0,0.0,0.0,0.0,0
-216.0,-154.0,-94.0,-63.0,6.0,0.0,-5.0,-10.0,0.0,0.0,0.0,0.0,0.0,0.0,0.0,0.0,0
-116.0,-124.0,-72.0,-53.0,-13.0,14.0,11.0,-25.0,0.0,0.0,0.0,0.0,0.0,0.0,0.0,0.0,0
-5.0,-97.0,-56.0,-47.0,-30.0,11.0,1.0,-39.0,0.0,0.0,0.0,0.0,0.0,0.0,0.0,0.0,0
81.0,-70.0,-46.0,-29.0,-36.0,0.0,-6.0,-67.0,0.0,0.0,0.0,0.0,0.0,0.0,0.0,0.0,0
175.0,-31.0,-27.0,-29.0,-33.0,-9.0,-32.0,-90.0,0.0,0.0,0.0,0.0,0.0,0.0,0.0,0.0,0
221.0,5.0,-11.0,-21.0,-37.0,-24.0,-50.0,-105.0,0.0,0.0,0.0,0.0,0.0,0.0,0.0,0.0,0
216.0,8.0,-13.0,-27.0,-44.0,-30.0,-63.0,-104.0,0.0,0.0,0.0,0.0,0.0,0.0,0.0,0.0,0
215.0,18.0,-13.0,-25.0,-41.0,-42.0,-79.0,-108.0,0.0,0.0,0.0,0.0,0.0,0.0,0.0,0.0,0
191.0,12.0,-13.0,-39.0,-43.0,-48.0,-96.0,-90.0,0.0,0.0,0.0,0.0,0.0,0.0,0.0,0.0,0
110.0,-1.0,-31.0,-57.0,-36.0,-55.0,-99.0,-68.0,0.0,0.0,0.0,0.0,0.0,0.0,0.0,0.0,0
21.0,-42.0,-48.0,-68.0,-25.0,-49.0,-93.0,-62.0,0.0,0.0,0.0,0.0,0.0,0.0,0.0,0.0,0
-59.0,-110.0,-88.0,-88.0,-12.0,-49.0,-87.0,-48.0,0.0,0.0,0.0,0.0,0.0,0.0,0.0,0.0,0
-163.0,-194.0,-122.0,-98.0,6.0,-38.0,-64.0,-20.0,0.0,0.0,0.0,0.0,0.0,0.0,0.0,0.0,0
-258.0,-291.0,-149.0,-111.0,18.0,-28.0,-34.0,5.0,0.0,0.0,0.0,0.0,0.0,0.0,0.0,0.0,0
-339.0,-366.0,-181.0,-130.0,38.0,-21.0,-5.0,25.0,0.0,0.0,0.0,0.0,0.0,0.0,0.0,0.0,0
-414.0,-400.0,-214.0,-143.0,49.0,-14.0,15.0,44.0,0.0,0.0,0.0,0.0,0.0,0.0,0.0,0.0,0
-459.0,-414.0,-223.0,-140.0,56.0,-7.0,23.0,50.0,0.0,0.0,0.0,0.0,0.0,0.0,0.0,0.0,0
-462.0,-401.0,-220.0,-136.0,67.0,1.0,26.0,45.0,0.0,0.0,0.0,0.0,0.0,0.0,0.0,0.0,0
-441.0,-374.0,-207.0,-116.0,71.0,7.0,28.0,41.0,0.0,0.0,0.0,0.0,0.0,0.0,0.0,0.0,0
-396.0,-314.0,-191.0,-97.0,60.0,8.0,23.0,27.0,0.0,0.0,0.0,0.0,0.0,0.0,0.0,0.0,0
-305.0,-230.0,-156.0,-84.0,47.0,2.0,9.0,8.0,0.0,0.0,0.0,0.0,0.0,0.0,0.0,0.0,0
-189.0,-161.0,-113.0,-62.0,23.0,0.0,1.0,-20.0,0.0,0.0,0.0,0.0,0.0,0.0,0.0,0.0,0
-71.0,-89.0,-56.0,-37.0,-6.0,-2.0,-12.0,-46.0,0.0,0.0,0.0,0.0,0.0,0.0,0.0,0.0,0
40.0,1.0,0.0,-5.0,-32.0,-2.0,-16.0,-66.0,0.0,0.0,0.0,0.0,0.0,0.0,0.0,0.0,0
160.0,98.0,39.0,13.0,-51.0,-5.0,-23.0,-89.0,0.0,0.0,0.0,0.0,0.0,0.0,0.0,0.0,0
260.0,172.0,68.0,25.0,-81.0,-23.0,-28.0,-104.0,0.0,0.0,0.0,0.0,0.0,0.0,0.0,0.0,0
301.0,229.0,93.0,31.0,-94.0,-37.0,-32.0,-108.0,0.0,0.0,0.0,0.0,0.0,0.0,0.0,0.0,0
324.0,272.0,104.0,37.0,-97.0,-43.0,-47.0,-108.0,0.0,0.0,0.0,0.0,0.0,0.0,0.0,0.0,0
304.0,259.0,110.0,45.0,-96.0,-51.0,-46.0,-85.0,0.0,0.0,0.0,0.0,0.0,0.0,0.0,0.0,0
223.0,213.0,96.0,42.0,-85.0,-50.0,-42.0,-68.0,0.0,0.0,0.0,0.0,0.0,0.0,0.0,0.0,0
138.0,139.0,59.0,32.0,-69.0,-51.0,-33.0,-52.0,0.0,0.0,0.0,0.0,0.0,0.0,0.0,0.0,0
37.0,39.0,27.0,16.0,-49.0,-37.0,-28.0,-33.0,0.0,0.0,0.0,0.0,0.0,0.0,0.0,0.0,0
-61.0,-55.0,-8.0,-9.0,-32.0,-28.0,-24.0,-29.0,0.0,0.0,0.0,0.0,0.0,0.0,0.0,0.0,0
-133.0,-145.0,-51.0,-25.0,-18.0,-27.0,-25.0,-21.0,0.0,0.0,0.0,0.0,0.0,0.0,0.0,0.0,0
-200.0,-214.0,-93.0,-58.0,-19.0,-29.0,-29.0,-2.0,0.0,0.0,0.0,0.0,0.0,0.0,0.0,0.0,0
-268.0,-231.0,-125.0,-79.0,-5.0,-25.0,-26.0,14.0,0.0,0.0,0.0,0.0,0.0,0.0,0.0,0.0,0
-300.0,-212.0,-136.0,-91.0,-9.0,-29.0,-22.0,21.0,0.0,0.0,0.0,0.0,0.0,0.0,0.0,0.0,0
-299.0,-210.0,-140.0,-101.0,-21.0,-38.0,-33.0,14.0,0.0,0.0,0.0,0.0,0.0,0.0,0.0,0.0,0
-291.0,-236.0,-149.0,-112.0,-36.0,-43.0,-48.0,20.0,0.0,0.0,0.0,0.0,0.0,0.0,0.0,0.0,0
-267.0,-225.0,-140.0,-111.0,-50.0,-50.0,-46.0,6.0,0.0,0.0,0.0,0.0,0.0,0.0,0.0,0.0,0
-197.0,-151.0,-109.0,-98.0,-64.0,-54.0,-60.0,-6.0,0.0,0.0,0.0,0.0,0.0,0.0,0.0,0.0,0
-95.0,-61.0,-68.0,-75.0,-64.0,-48.0,-67.0,-36.0,0.0,0.0,0.0,0.0,0.0,0.0,0.0,0.0,0
17.0,11.0,-23.0,-50.0,-78.0,-45.0,-61.0,-50.0,0.0,0.0,0.0,0.0,0.0,0.0,0.0,0.0,0
90.0,79.0,14.0,-22.0,-84.0,-52.0,-71.0,-64.0,0.0,0.0,0.0,0.0,0.0,0.0,0.0,0.0,0
169.0,141.0,43.0,2.0,-88.0,-73.0,-78.0,-78.0,0.0,0.0,0.0,0.0,0.0,0.0,0.0,0.0,0
241.0,181.0,74.0,19.0,-85.0,-69.0,-73.0,-87.0,0.0,0.0,0.0,0.0,0.0,0.0,0.0,0.0,0
263.0,202.0,91.0,27.0,-91.0,-60.0,-77.0,-85.0,0.0,0.0,0.0,0.0,0.0,0.0,0.0,0.0,0
257.0,200.0,102.0,31.0,-96.0,-57.0,-81.0,-77.0,0.0,0.0,0.0,0.0,0.0,0.0,0.0,0.0,0
233.0,178.0,94.0,34.0,-100.0,-44.0,-70.0,-67.0,0.0,0.0,0.0,0.0,0.0,0.0,0.0,0.0,0
175.0,170.0,80.0,27.0,-88.0,-23.0,-62.0,-47.0,0.0,0.0,0.0,0.0,0.0,0.0,0.0,0.0,0
113.0,141.0,63.0,24.0,-74.0,-11.0,-49.0,-34.0,0.0,0.0,0.0,0.0,0.0,0.0,0.0,0.0,0
53.0,95.0,43.0,5.0,-56.0,-5.0,-44.0,-13.0,0.0,0.0,0.0,0.0,0.0,0.0,0.0,0.0,0
-8.0,22.0,-1.0,-19.0,-37.0,-14.0,-35.0,-3.0,0.0,0.0,0.0,0.0,0.0,0.0,0.0,0.0,0
-79.0,-61.0,-41.0,-42.0,-20.0,-29.0,-31.0,0.0,0.0,0.0,0.0,0.0,0.0,0.0,0.0,0.0,0
-162.0,-138.0,-69.0,-63.0,-11.0,-21.0,-30.0,21.0,0.0,0.0,0.0,0.0,0.0,0.0,0.0,0.0,0
-235.0,-188.0,-92.0,-74.0,7.0,3.0,-12.0,35.0,0.0,0.0,0.0,0.0,0.0,0.0,0.0,0.0,0
-277.0,-213.0,-110.0,-79.0,18.0,40.0,-1.0,31.0,0.0,0.0,0.0,0.0,0.0,0.0,0.0,0.0,0
-283.0,-226.0,-116.0,-77.0,23.0,48.0,6.0,25.0,0.0,0.0,0.0,0.0,0.0,0.0,0.0,0.0,0
-276.0,-222.0,-107.0,-84.0,28.0,39.0,-6.0,27.0,0.0,0.0,0.0,0.0,0.0,0.0,0.0,0.0,0
-265.0,-198.0,-93.0,-63.0,28.0,19.0,-6.0,22.0,0.0,0.0,0.0,0.0,0.0,0.0,0.0,0.0,0
-207.0,-150.0,-81.0,-26.0,28.0,2.0,-5.0,14.0,0.0,0.0,0.0,0.0,0.0,0.0,0.0,0.0,0
-121.0,-90.0,-60.0,-10.0,16.0,-14.0,-8.0,-11.0,0.0,0.0,0.0,0.0,0.0,0.0,0.0,0.0,0
-29.0,-34.0,-36.0,-10.0,-3.0,-22.0,-21.0,-31.0,0.0,0.0,0.0,0.0,0.0,0.0,0.0,0.0,0
42.0,25.0,-10.0,-7.0,-28.0,-35.0,-26.0,-47.0,0.0,0.0,0.0,0.0,0.0,0.0,0.0,0.0,0
122.0,73.0,23.0,-3.0,-49.0,-41.0,-30.0,-55.0,0.0,0.0,0.0,0.0,0.0,0.0,0.0,0.0,0
176.0,103.0,48.0,6.0,-62.0,-32.0,-29.0,-65.0,0.0,0.0,0.0,0.0,0.0,0.0,0.0,0.0,0
206.0,128.0,67.0,19.0,-70.0,-30.0,-32.0,-66.0,0.0,0.0,0.0,0.0,0.0,0.0,0.0,0.0,0
207.0,134.0,84.0,10.0,-76.0,-42.0,-34.0,-69.0,0.0,0.0,0.0,0.0,0.0,0.0,0.0,0.0,0
160.0,104.0,87.0,0.0,-87.0,-71.0,-30.0,-63.0,0.0,0.0,0.0,0.0,0.0,0.0,0.0,0.0,0
70.0,60.0,60.0,-22.0,-93.0,-89.0,-34.0,-48.0,0.0,0.0,0.0,0.0,0.0,0.0,0.0,0.0,0
7.0,20.0,38.0,-45.0,-101.0,-97.0,-34.0,-39.0,0.0,0.0,0.0,0.0,0.0,0.0,0.0,0.0,0
-27.0,-19.0,6.0,-53.0,-86.0,-84.0,-35.0,-27.0,0.0,0.0,0.0,0.0,0.0,0.0,0.0,0.0,0
-62.0,-66.0,-35.0,-64.0,-70.0,-52.0,-31.0,-12.0,0.0,0.0,0.0,0.0,0.0,0.0,0.0,0.0,0
-99.0,-118.0,-66.0,-98.0,-51.0,-37.0,-32.0,-8.0,0.0,0.0,0.0,0.0,0.0,0.0,0.0,0.0,0
-152.0,-170.0,-112.0,-113.0,-33.0,-32.0,-34.0,4.0,0.0,0.0,0.0,0.0,0.0,0.0,0.0,0.0,0
-215.0,-194.0,-139.0,-112.0,-14.0,-22.0,-30.0,19.0,0.0,0.0,0.0,0.0,0.0,0.0,0.0,0.0,0
-259.0,-204.0,-150.0,-105.0,8.0,-24.0,-24.0,15.0,0.0,0.0,0.0,0.0,0.0,0.0,0.0,0.0,0
-273.0,-211.0,-161.0,-91.0,31.0,-19.0,-19.0,13.0,0.0,0.0,0.0,0.0,0.0,0.0,0.0,0.0,0
-263.0,-211.0,-166.0,-90.0,29.0,-16.0,-24.0,12.0,0.0,0.0,0.0,0.0,0.0,0.0,0.0,0.0,0
-250.0,-183.0,-152.0,-86.0,16.0,-21.0,-27.0,-11.0,0.0,0.0,0.0,0.0,0.0,0.0,0.0,0.0,0
-192.0,-140.0,-130.0,-68.0,3.0,-21.0,-29.0,-30.0,0.0,0.0,0.0,0.0,0.0,0.0,0.0,0.0,0
-105.0,-89.0,-98.0,-44.0,-13.0,-14.0,-32.0,-35.0,0.0,0.0,0.0,0.0,0.0,0.0,0.0,0.0,0
-36.0,-30.0,-65.0,-27.0,-19.0,-13.0,-37.0,-55.0,0.0,0.0,0.0,0.0,0.0,0.0,0.0,0.0,0
32.0,30.0,-42.0,-23.0,-40.0,-20.0,-45.0,-70.0,0.0,0.0,0.0,0.0,0.0,0.0,0.0,0.0,0
114.0,78.0,-15.0,-25.0,-64.0,-28.0,-48.0,-90.0,0.0,0.0,0.0,0.0,0.0,0.0,0.0,0.0,0
179.0,112.0,4.0,-23.0,-84.0,-40.0,-51.0,-97.0,0.0,0.0,0.0,0.0,0.0,0.0,0.0,0.0,0
214.0,136.0,24.0,-17.0,-98.0,-49.0,-62.0,-102.0,0.0,0.0,0.0,0.0,0.0,0.0,0.0,0.0,0
236.0,149.0,35.0,-25.0,-103.0,-55.0,-70.0,-101.0,0.0,0.0,0.0,0.0,0.0,0.0,0.0,0.0,0
228.0,137.0,31.0,-27.0,-103.0,-60.0,-61.0,-94.0,0.0,0.0,0.0,0.0,0.0,0.0,0.0,0.0,0
167.0,118.0,29.0,-30.0,-104.0,-60.0,-56.0,-75.0,0.0,0.0,0.0,0.0,0.0,0.0,0.0,0.0,0
100.0,88.0,23.0,-21.0,-92.0,-61.0,-52.0,-66.0,0.0,0.0,0.0,0.0,0.0,0.0,0.0,0.0,0
44.0,39.0,5.0,-20.0,-74.0,-56.0,-55.0,-55.0,0.0,0.0,0.0,0.0,0.0,0.0,0.0,0.0,0
-21.0,-14.0,-18.0,-14.0,-48.0,-38.0,-49.0,-45.0,0.0,0.0,0.0,0.0,0.0,0.0,0.0,0.0,0
-77.0,-58.0,-31.0,-10.0,-18.0,-20.0,-37.0,-38.0,0.0,0.0,0.0,0.0,0.0,0.0,0.0,0.0,0
-130.0,-107.0,-53.0,-4.0,7.0,-5.0,-13.0,-14.0,0.0,0.0,0.0,0.0,0.0,0.0,0.0,0.0,0
-177.0,-149.0,-69.0,0.0,34.0,-7.0,-3.0,3.0,0.0,0.0,0.0,0.0,0.0,0.0,0.0,0.0,0
-209.0,-177.0,-87.0,4.0,49.0,-17.0,2.0,9.0,0.0,0.0,0.0,0.0,0.0,0.0,0.0,0.0,0
-211.0,-187.0,-90.0,10.0,55.0,-9.0,16.0,19.0,0.0,0.0,0.0,0.0,0.0,0.0,0.0,0.0,0
-208.0,-186.0,-88.0,14.0,66.0,5.0,30.0,41.0,0.0,0.0,0.0,0.0,0.0,0.0,0.0,0.0,0
-200.0,-157.0,-75.0,20.0,70.0,11.0,31.0,41.0,0.0,0.0,0.0,0.0,0.0,0.0,0.0,0.0,0
-170.0,-128.0,-51.0,36.0,66.0,17.0,14.0,12.0,0.0,0.0,0.0,0.0,0.0,0.0,0.0,0.0,0
-111.0,-68.0,-20.0,45.0,53.0,23.0,-4.0,-17.0,0.0,0.0,0.0,0.0,0.0,0.0,0.0,0.0,0
-18.0,16.0,6.0,40.0,21.0,7.0,-23.0,-34.0,0.0,0.0,0.0,0.0,0.0,0.0,0.0,0.0,0
52.0,75.0,30.0,24.0,-13.0,-2.0,-29.0,-56.0,0.0,0.0,0.0,0.0,0.0,0.0,0.0,0.0,0
126.0,111.0,47.0,2.0,-43.0,-7.0,-43.0,-73.0,0.0,0.0,0.0,0.0,0.0,0.0,0.0,0.0,0
185.0,136.0,46.0,-28.0,-77.0,-32.0,-55.0,-87.0,0.0,0.0,0.0,0.0,0.0,0.0,0.0,0.0,0
220.0,152.0,25.0,-66.0,-108.0,-51.0,-61.0,-90.0,0.0,0.0,0.0,0.0,0.0,0.0,0.0,0.0,0
216.0,130.0,4.0,-85.0,-125.0,-60.0,-64.0,-88.0,0.0,0.0,0.0,0.0,0.0,0.0,0.0,0.0,0
182.0,87.0,-9.0,-87.0,-129.0,-73.0,-62.0,-69.0,0.0,0.0,0.0,0.0,0.0,0.0,0.0,0.0,0
96.0,62.0,-12.0,-92.0,-123.0,-86.0,-69.0,-47.0,0.0,0.0,0.0,0.0,0.0,0.0,0.0,0.0,0
36.0,57.0,-17.0,-90.0,-113.0,-91.0,-61.0,-35.0,0.0,0.0,0.0,0.0,0.0,0.0,0.0,0.0,0
-21.0,24.0,-45.0,-101.0,-105.0,-94.0,-57.0,-28.0,0.0,0.0,0.0,0.0,0.0,0.0,0.0,0.0,0
-82.0,-24.0,-75.0,-111.0,-91.0,-89.0,-52.0,-17.0,0.0,0.0,0.0,0.0,0.0,0.0,0.0,0.0,0
-124.0,-81.0,-92.0,-111.0,-78.0,-82.0,-42.0,-18.0,0.0,0.0,0.0,0.0,0.0,0.0,0.0,0.0,0
-187.0,-140.0,-109.0,-114.0,-72.0,-77.0,-40.0,-9.0,0.0,0.0,0.0,0.0,0.0,0.0,0.0,0.0,0
-278.0,-179.0,-125.0,-122.0,-59.0,-70.0,-37.0,2.0,0.0,0.0,0.0,0.0,0.0,0.0,0.0,0.0,0
-312.0,-198.0,-127.0,-121.0,-34.0,-62.0,-30.0,1.0,0.0,0.0,0.0,0.0,0.0,0.0,0.0,0.0,0
-300.0,-196.0,-129.0,-112.0,-15.0,-51.0,-25.0,6.0,0.0,0.0,0.0,0.0,0.0,0.0,0.0,0.0,0
-288.0,-185.0,-124.0,-103.0,-10.0,-56.0,-26.0,5.0,0.0,0.0,0.0,0.0,0.0,0.0,0.0,0.0,0
-267.0,-157.0,-112.0,-91.0,-10.0,-52.0,-30.0,2.0,0.0,0.0,0.0,0.0,0.0,0.0,0.0,0.0,0
-215.0,-107.0,-87.0,-83.0,-13.0,-33.0,-32.0,-9.0,0.0,0.0,0.0,0.0,0.0,0.0,0.0,0.0,0
-141.0,-93.0,-68.0,-63.0,-11.0,-11.0,-32.0,-26.0,0.0,0.0,0.0,0.0,0.0,0.0,0.0,0.0,0
-75.0,-88.0,-53.0,-34.0,-14.0,-2.0,-37.0,-44.0,0.0,0.0,0.0,0.0,0.0,0.0,0.0,0.0,0
-9.0,-29.0,-21.0,2.0,-11.0,11.0,-42.0,-51.0,0.0,0.0,0.0,0.0,0.0,0.0,0.0,0.0,0
71.0,39.0,18.0,28.0,-10.0,22.0,-34.0,-61.0,0.0,0.0,0.0,0.0,0.0,0.0,0.0,0.0,0
132.0,77.0,52.0,56.0,-7.0,28.0,-30.0,-62.0,0.0,0.0,0.0,0.0,0.0,0.0,0.0,0.0,0
142.0,102.0,80.0,75.0,-17.0,11.0,-31.0,-59.0,0.0,0.0,0.0,0.0,0.0,0.0,0.0,0.0,0
155.0,104.0,91.0,70.0,-28.0,-17.0,-40.0,-60.0,0.0,0.0,0.0,0.0,0.0,0.0,0.0,0.0,0
166.0,87.0,76.0,47.0,-38.0,-29.0,-46.0,-52.0,0.0,0.0,0.0,0.0,0.0,0.0,0.0,0.0,0
115.0,77.0,48.0,29.0,-41.0,-51.0,-42.0,-43.0,0.0,0.0,0.0,0.0,0.0,0.0,0.0,0.0,0
69.0,52.0,35.0,12.0,-48.0,-47.0,-36.0,-36.0,0.0,0.0,0.0,0.0,0.0,0.0,0.0,0.0,0
31.0,7.0,21.0,-2.0,-40.0,-42.0,-35.0,-16.0,0.0,0.0,0.0,0.0,0.0,0.0,0.0,0.0,0
-19.0,-29.0,0.0,-13.0,-39.0,-41.0,-30.0,-10.0,0.0,0.0,0.0,0.0,0.0,0.0,0.0,0.0,0
-48.0,-69.0,-31.0,-25.0,-31.0,-44.0,-28.0,-8.0,0.0,0.0,0.0,0.0,0.0,0.0,0.0,0.0,0
-96.0,-115.0,-58.0,-53.0,-24.0,-27.0,-27.0,-10.0,0.0,0.0,0.0,0.0,0.0,0.0,0.0,0.0,0
-151.0,-143.0,-75.0,-66.0,-13.0,-6.0,-22.0,-5.0,0.0,0.0,0.0,0.0,0.0,0.0,0.0,0.0,0
-178.0,-156.0,-84.0,-63.0,-2.0,10.0,-14.0,-6.0,0.0,0.0,0.0,0.0,0.0,0.0,0.0,0.0,0
-184.0,-157.0,-83.0,-51.0,-1.0,1.0,-19.0,-6.0,0.0,0.0,0.0,0.0,0.0,0.0,0.0,0.0,0
-182.0,-142.0,-79.0,-49.0,-1.0,-25.0,-23.0,-8.0,0.0,0.0,0.0,0.0,0.0,0.0,0.0,0.0,0
-171.0,-122.0,-72.0,-49.0,-3.0,-40.0,-26.0,-18.0,0.0,0.0,0.0,0.0,0.0,0.0,0.0,0.0,0
-135.0,-83.0,-54.0,-39.0,-19.0,-47.0,-31.0,-37.0,0.0,0.0,0.0,0.0,0.0,0.0,0.0,0.0,0
-60.0,-36.0,-36.0,-27.0,-20.0,-53.0,-36.0,-49.0,0.0,0.0,0.0,0.0,0.0,0.0,0.0,0.0,0
10.0,10.0,-32.0,-22.0,-23.0,-47.0,-39.0,-50.0,0.0,0.0,0.0,0.0,0.0,0.0,0.0,0.0,0
65.0,52.0,-33.0,-27.0,-37.0,-44.0,-41.0,-58.0,0.0,0.0,0.0,0.0,0.0,0.0,0.0,0.0,0
120.0,84.0,-16.0,-17.0,-42.0,-39.0,-49.0,-72.0,0.0,0.0,0.0,0.0,0.0,0.0,0.0,0.0,0
172.0,89.0,0.0,-15.0,-56.0,-55.0,-57.0,-63.0,0.0,0.0,0.0,0.0,0.0,0.0,0.0,0.0,0
179.0,115.0,14.0,-10.0,-61.0,-66.0,-63.0,-68.0,0.0,0.0,0.0,0.0,0.0,0.0,0.0,0.0,0
184.0,128.0,19.0,-7.0,-70.0,-56.0,-56.0,-64.0,0.0,0.0,0.0,0.0,0.0,0.0,0.0,0.0,0
182.0,96.0,17.0,-17.0,-69.0,-51.0,-49.0,-52.0,0.0,0.0,0.0,0.0,0.0,0.0,0.0,0.0,0
123.0,58.0,6.0,-22.0,-63.0,-46.0,-51.0,-48.0,0.0,0.0,0.0,0.0,0.0,0.0,0.0,0.0,0
74.0,23.0,-4.0,-35.0,-61.0,-29.0,-49.0,-36.0,0.0,0.0,0.0,0.0,0.0,0.0,0.0,0.0,0
30.0,-6.0,-14.0,-45.0,-58.0,-26.0,-40.0,-25.0,0.0,0.0,0.0,0.0,0.0,0.0,0.0,0.0,0
-26.0,-51.0,-33.0,-49.0,-47.0,-16.0,-33.0,-20.0,0.0,0.0,0.0,0.0,0.0,0.0,0.0,0.0,0
-57.0,-81.0,-66.0,-54.0,-39.0,-14.0,-33.0,-24.0,0.0,0.0,0.0,0.0,0.0,0.0,0.0,0.0,0
-93.0,-110.0,-86.0,-61.0,-41.0,-35.0,-34.0,-20.0,0.0,0.0,0.0,0.0,0.0,0.0,0.0,0.0,0
-145.0,-147.0,-94.0,-63.0,-27.0,-37.0,-34.0,-12.0,0.0,0.0,0.0,0.0,0.0,0.0,0.0,0.0,0
-179.0,-175.0,-98.0,-64.0,-17.0,-22.0,-33.0,-12.0,0.0,0.0,0.0,0.0,0.0,0.0,0.0,0.0,0
-193.0,-189.0,-109.0,-61.0,-7.0,-16.0,-36.0,-8.0,0.0,0.0,0.0,0.0,0.0,0.0,0.0,0.0,0
-202.0,-208.0,-112.0,-62.0,3.0,-19.0,-32.0,-8.0,0.0,0.0,0.0,0.0,0.0,0.0,0.0,0.0,0
-211.0,-216.0,-126.0,-66.0,-3.0,-22.0,-32.0,-16.0,0.0,0.0,0.0,0.0,0.0,0.0,0.0,0.0,0
-185.0,-178.0,-102.0,-52.0,0.0,-18.0,-31.0,-29.0,0.0,0.0,0.0,0.0,0.0,0.0,0.0,0.0,0
-120.0,-105.0,-60.0,-32.0,-7.0,-20.0,-31.0,-34.0,0.0,0.0,0.0,0.0,0.0,0.0,0.0,0.0,0
-43.0,-40.0,-28.0,-22.0,-19.0,-31.0,-35.0,-50.0,0.0,0.0,0.0,0.0,0.0,0.0,0.0,0.0,0
2.0,10.0,10.0,-11.0,-36.0,-38.0,-34.0,-54.0,0.0,0.0,0.0,0.0,0.0,0.0,0.0,0.0,0
49.0,54.0,29.0,-7.0,-61.0,-45.0,-32.0,-59.0,0.0,0.0,0.0,0.0,0.0,0.0,0.0,0.0,0
91.0,88.0,37.0,-11.0,-75.0,-56.0,-31.0,-61.0,0.0,0.0,0.0,0.0,0.0,0.0,0.0,0.0,0
106.0,102.0,40.0,-12.0,-83.0,-50.0,-35.0,-52.0,0.0,0.0,0.0,0.0,0.0,0.0,0.0,0.0,0
106.0,98.0,35.0,-9.0,-84.0,-53.0,-37.0,-57.0,0.0,0.0,0.0,0.0,0.0,0.0,0.0,0.0,0
92.0,80.0,32.0,3.0,-74.0,-48.0,-36.0,-43.0,0.0,0.0,0.0,0.0,0.0,0.0,0.0,0.0,0
45.0,54.0,30.0,10.0,-57.0,-40.0,-37.0,-34.0,0.0,0.0,0.0,0.0,0.0,0.0,0.0,0.0,0
5.0,17.0,16.0,7.0,-33.0,-27.0,-39.0,-25.0,0.0,0.0,0.0,0.0,0.0,0.0,0.0,0.0,0
-33.0,-32.0,-8.0,0.0,-22.0,-22.0,-41.0,-26.0,0.0,0.0,0.0,0.0,0.0,0.0,0.0,0.0,0
-74.0,-72.0,-37.0,-13.0,-14.0,-16.0,-40.0,-28.0,0.0,0.0,0.0,0.0,0.0,0.0,0.0,0.0,0
-101.0,-94.0,-47.0,-16.0,-1.0,-17.0,-37.0,-21.0,0.0,0.0,0.0,0.0,0.0,0.0,0.0,0.0,0
-122.0,-126.0,-42.0,-11.0,11.0,-8.0,-31.0,-11.0,0.0,0.0,0.0,0.0,0.0,0.0,0.0,0.0,0
-170.0,-134.0,-51.0,-11.0,21.0,-1.0,-32.0,-11.0,0.0,0.0,0.0,0.0,0.0,0.0,0.0,0.0,0
-187.0,-131.0,-63.0,-15.0,25.0,0.0,-40.0,-15.0,0.0,0.0,0.0,0.0,0.0,0.0,0.0,0.0,0
-190.0,-128.0,-67.0,-29.0,16.0,-5.0,-39.0,-17.0,0.0,0.0,0.0,0.0,0.0,0.0,0.0,0.0,0
-186.0,-120.0,-69.0,-43.0,-2.0,-13.0,-34.0,-20.0,0.0,0.0,0.0,0.0,0.0,0.0,0.0,0.0,0
-185.0,-103.0,-68.0,-56.0,-15.0,-21.0,-29.0,-22.0,0.0,0.0,0.0,0.0,0.0,0.0,0.0,0.0,0
-152.0,-71.0,-61.0,-51.0,-16.0,-24.0,-26.0,-29.0,0.0,0.0,0.0,0.0,0.0,0.0,0.0,0.0,0
-93.0,-41.0,-47.0,-52.0,-26.0,-26.0,-35.0,-44.0,0.0,0.0,0.0,0.0,0.0,0.0,0.0,0.0,0
-42.0,-15.0,-38.0,-59.0,-43.0,-32.0,-32.0,-53.0,0.0,0.0,0.0,0.0,0.0,0.0,0.0,0.0,0
-9.0,14.0,-28.0,-53.0,-54.0,-31.0,-31.0,-52.0,0.0,0.0,0.0,0.0,0.0,0.0,0.0,0.0,0
46.0,38.0,-24.0,-48.0,-57.0,-36.0,-35.0,-59.0,0.0,0.0,0.0,0.0,0.0,0.0,0.0,0.0,0
90.0,50.0,-11.0,-41.0,-67.0,-40.0,-39.0,-60.0,0.0,0.0,0.0,0.0,0.0,0.0,0.0,0.0,0
94.0,66.0,2.0,-29.0,-79.0,-46.0,-44.0,-52.0,0.0,0.0,0.0,0.0,0.0,0.0,0.0,0.0,0
106.0,78.0,10.0,-33.0,-90.0,-50.0,-41.0,-50.0,0.0,0.0,0.0,0.0,0.0,0.0,0.0,0.0,0
100.0,70.0,3.0,-51.0,-88.0,-62.0,-41.0,-36.0,0.0,0.0,0.0,0.0,0.0,0.0,0.0,0.0,0
53.0,53.0,-11.0,-64.0,-78.0,-63.0,-31.0,-28.0,0.0,0.0,0.0,0.0,0.0,0.0,0.0,0.0,0
14.0,21.0,-26.0,-78.0,-77.0,-58.0,-36.0,-24.0,0.0,0.0,0.0,0.0,0.0,0.0,0.0,0.0,0
-17.0,-27.0,-63.0,-81.0,-67.0,-54.0,-38.0,-17.0,0.0,0.0,0.0,0.0,0.0,0.0,0.0,0.0,0
-58.0,-69.0,-83.0,-68.0,-46.0,-41.0,-33.0,-19.0,0.0,0.0,0.0,0.0,0.0,0.0,0.0,0.0,0
-74.0,-103.0,-85.0,-53.0,-22.0,-28.0,-37.0,-27.0,0.0,0.0,0.0,0.0,0.0,0.0,0.0,0.0,0
-86.0,-129.0,-72.0,-40.0,0.0,-30.0,-34.0,-14.0,0.0,0.0,0.0,0.0,0.0,0.0,0.0,0.0,0
-116.0,-140.0,-67.0,-19.0,12.0,-17.0,-31.0,-10.0,0.0,0.0,0.0,0.0,0.0,0.0,0.0,0.0,0
-137.0,-133.0,-53.0,-5.0,14.0,-12.0,-28.0,-13.0,0.0,0.0,0.0,0.0,0.0,0.0,0.0,0.0,0
-139.0,-130.0,-41.0,5.0,30.0,-14.0,-26.0,-13.0,0.0,0.0,0.0,0.0,0.0,0.0,0.0,0.0,0
-134.0,-119.0,-25.0,11.0,30.0,-18.0,-23.0,-12.0,0.0,0.0,0.0,0.0,0.0,0.0,0.0,0.0,0
-131.0,-94.0,-19.0,11.0,21.0,-43.0,-24.0,-20.0,0.0,0.0,0.0,0.0,0.0,0.0,0.0,0.0,0
-115.0,-73.0,-24.0,8.0,22.0,-35.0,-24.0,-27.0,0.0,0.0,0.0,0.0,0.0,0.0,0.0,0.0,0
-70.0,-47.0,-34.0,-9.0,7.0,-14.0,-27.0,-45.0,0.0,0.0,0.0,0.0,0.0,0.0,0.0,0.0,0
-13.0,-29.0,-44.0,-28.0,-6.0,-5.0,-24.0,-55.0,0.0,0.0,0.0,0.0,0.0,0.0,0.0,0.0,0
27.0,-8.0,-53.0,-31.0,-16.0,1.0,-21.0,-58.0,0.0,0.0,0.0,0.0,0.0,0.0,0.0,0.0,0
63.0,1.0,-53.0,-29.0,-20.0,12.0,-19.0,-64.0,0.0,0.0,0.0,0.0,0.0,0.0,0.0,0.0,0
106.0,8.0,-39.0,-29.0,-25.0,14.0,-16.0,-56.0,0.0,0.0,0.0,0.0,0.0,0.0,0.0,0.0,0
102.0,11.0,-16.0,-17.0,-26.0,11.0,-6.0,-48.0,0.0,0.0,0.0,0.0,0.0,0.0,0.0,0.0,0
91.0,10.0,11.0,3.0,-39.0,-15.0,-10.0,-45.0,0.0,0.0,0.0,0.0,0.0,0.0,0.0,0.0,0
92.0,37.0,32.0,12.0,-47.0,-42.0,-13.0,-28.0,0.0,0.0,0.0,0.0,0.0,0.0,0.0,0.0,0
58.0,55.0,31.0,9.0,-48.0,-59.0,-20.0,-18.0,0.0,0.0,0.0,0.0,0.0,0.0,0.0,0.0,0
32.0,67.0,26.0,-1.0,-53.0,-63.0,-28.0,-17.0,0.0,0.0,0.0,0.0,0.0,0.0,0.0,0.0,0
7.0,56.0,25.0,-5.0,-57.0,-61.0,-22.0,-5.0,0.0,0.0,0.0,0.0,0.0,0.0,0.0,0.0,0
-23.0,19.0,9.0,-15.0,-48.0,-55.0,-19.0,-1.0,0.0,0.0,0.0,0.0,0.0,0.0,0.0,0.0,0
-44.0,-23.0,-29.0,-41.0,-49.0,-42.0,-16.0,-2.0,0.0,0.0,0.0,0.0,0.0,0.0,0.0,0.0,0
-79.0,-69.0,-61.0,-70.0,-50.0,-39.0,-22.0,1.0,0.0,0.0,0.0,0.0,0.0,0.0,0.0,0.0,0
-117.0,-93.0,-85.0,-92.0,-52.0,-41.0,-29.0,-2.0,0.0,0.0,0.0,0.0,0.0,0.0,0.0,0.0,0
-146.0,-120.0,-109.0,-106.0,-55.0,-42.0,-31.0,-9.0,0.0,0.0,0.0,0.0,0.0,0.0,0.0,0.0,0
-156.0,-120.0,-126.0,-116.0,-47.0,-41.0,-27.0,-13.0,0.0,0.0,0.0,0.0,0.0,0.0,0.0,0.0,0
-145.0,-125.0,-131.0,-106.0,-52.0,-43.0,-31.0,-21.0,0.0,0.0,0.0,0.0,0.0,0.0,0.0,0.0,0
-157.0,-112.0,-122.0,-94.0,-50.0,-32.0,-38.0,-20.0,0.0,0.0,0.0,0.0,0.0,0.0,0.0,0.0,0
-141.0,-86.0,-103.0,-84.0,-39.0,-33.0,-34.0,-23.0,0.0,0.0,0.0,0.0,0.0,0.0,0.0,0.0,0
-92.0,-53.0,-80.0,-67.0,-40.0,-31.0,-40.0,-44.0,0.0,0.0,0.0,0.0,0.0,0.0,0.0,0.0,0
-35.0,-28.0,-58.0,-52.0,-47.0,-37.0,-42.0,-49.0,0.0,0.0,0.0,0.0,0.0,0.0,0.0,0.0,0
0.0,-3.0,-33.0,-39.0,-46.0,-34.0,-42.0,-50.0,0.0,0.0,0.0,0.0,0.0,0.0,0.0,0.0,0
47.0,21.0,-15.0,-32.0,-53.0,-33.0,-42.0,-61.0,0.0,0.0,0.0,0.0,0.0,0.0,0.0,0.0,0
75.0,34.0,2.0,-18.0,-55.0,-45.0,-43.0,-65.0,0.0,0.0,0.0,0.0,0.0,0.0,0.0,0.0,0
86.0,50.0,11.0,-7.0,-56.0,-60.0,-47.0,-59.0,0.0,0.0,0.0,0.0,0.0,0.0,0.0,0.0,0
89.0,50.0,8.0,-7.0,-58.0,-74.0,-39.0,-56.0,0.0,0.0,0.0,0.0,0.0,0.0,0.0,0.0,0
74.0,34.0,0.0,-9.0,-58.0,-66.0,-32.0,-43.0,0.0,0.0,0.0,0.0,0.0,0.0,0.0,0.0,0
31.0,11.0,-4.0,-12.0,-49.0,-45.0,-35.0,-22.0,0.0,0.0,0.0,0.0,0.0,0.0,0.0,0.0,0
-3.0,-9.0,-14.0,-10.0,-42.0,-22.0,-36.0,-19.0,0.0,0.0,0.0,0.0,0.0,0.0,0.0,0.0,0
-27.0,-35.0,-19.0,-13.0,-39.0,9.0,-34.0,-23.0,0.0,0.0,0.0,0.0,0.0,0.0,0.0,0.0,0
-63.0,-55.0,-21.0,-20.0,-25.0,37.0,-26.0,-15.0,0.0,0.0,0.0,0.0,0.0,0.0,0.0,0.0,0
-75.0,-69.0,-17.0,-20.0,-10.0,35.0,-13.0,-16.0,0.0,0.0,0.0,0.0,0.0,0.0,0.0,0.0,0
-92.0,-87.0,-28.0,-24.0,-11.0,8.0,-8.0,-5.0,0.0,0.0,0.0,0.0,0.0,0.0,0.0,0.0,0
-115.0,-86.0,-32.0,-33.0,-8.0,-5.0,-21.0,1.0,0.0,0.0,0.0,0.0,0.0,0.0,0.0,0.0,0
-127.0,-90.0,-36.0,-45.0,-17.0,-10.0,-26.0,-4.0,0.0,0.0,0.0,0.0,0.0,0.0,0.0,0.0,0
-132.0,-97.0,-47.0,-46.0,-18.0,-9.0,-31.0,-12.0,0.0,0.0,0.0,0.0,0.0,0.0,0.0,0.0,0
-137.0,-116.0,-63.0,-48.0,-16.0,-9.0,-30.0,-8.0,0.0,0.0,0.0,0.0,0.0,0.0,0.0,0.0,0
-145.0,-114.0,-67.0,-48.0,-19.0,-21.0,-37.0,-14.0,0.0,0.0,0.0,0.0,0.0,0.0,0.0,0.0,0
-129.0,-95.0,-55.0,-35.0,-21.0,-28.0,-38.0,-26.0,0.0,0.0,0.0,0.0,0.0,0.0,0.0,0.0,0
-86.0,-72.0,-34.0,-15.0,-21.0,-37.0,-40.0,-41.0,0.0,0.0,0.0,0.0,0.0,0.0,0.0,0.0,0
-36.0,-48.0,-14.0,-9.0,-27.0,-41.0,-47.0,-60.0,0.0,0.0,0.0,0.0,0.0,0.0,0.0,0.0,0
1.0,-16.0,-6.0,-11.0,-26.0,-42.0,-51.0,-62.0,0.0,0.0,0.0,0.0,0.0,0.0,0.0,0.0,0
50.0,9.0,5.0,-11.0,-29.0,-47.0,-57.0,-72.0,0.0,0.0,0.0,0.0,0.0,0.0,0.0,0.0,0
83.0,26.0,9.0,-16.0,-38.0,-48.0,-57.0,-68.0,0.0,0.0,0.0,0.0,0.0,0.0,0.0,0.0,0
66.0,37.0,11.0,-19.0,-48.0,-54.0,-53.0,-62.0,0.0,0.0,0.0,0.0,0.0,0.0,0.0,0.0,0
61.0,45.0,12.0,-20.0,-53.0,-62.0,-53.0,-60.0,0.0,0.0,0.0,0.0,0.0,0.0,0.0,0.0,0
53.0,27.0,-3.0,-28.0,-57.0,-60.0,-51.0,-55.0,0.0,0.0,0.0,0.0,0.0,0.0,0.0,0.0,0
14.0,15.0,-16.0,-30.0,-47.0,-51.0,-43.0,-31.0,0.0,0.0,0.0,0.0,0.0,0.0,0.0,0.0,0
-11.0,-4.0,-28.0,-33.0,-35.0,-36.0,-33.0,-21.0,0.0,0.0,0.0,0.0,0.0,0.0,0.0,0.0,0
-33.0,-26.0,-41.0,-37.0,-30.0,-32.0,-37.0,-17.0,0.0,0.0,0.0,0.0,0.0,0.0,0.0,0.0,0
-58.0,-41.0,-58.0,-47.0,-22.0,-24.0,-27.0,-19.0,0.0,0.0,0.0,0.0,0.0,0.0,0.0,0.0,0
-60.0,-70.0,-78.0,-46.0,-18.0,-12.0,-21.0,-18.0,0.0,0.0,0.0,0.0,0.0,0.0,0.0,0.0,0
-68.0,-98.0,-81.0,-42.0,-11.0,-7.0,-19.0,-13.0,0.0,0.0,0.0,0.0,0.0,0.0,0.0,0.0,0
-97.0,-106.0,-70.0,-35.0,-5.0,-16.0,-21.0,-2.0,0.0,0.0,0.0,0.0,0.0,0.0,0.0,0.0,0
-112.0,-107.0,-72.0,-39.0,-6.0,-30.0,-22.0,-8.0,0.0,0.0,0.0,0.0,0.0,0.0,0.0,0.0,0
-116.0,-110.0,-69.0,-64.0,-14.0,-28.0,-25.0,-17.0,0.0,0.0,0.0,0.0,0.0,0.0,0.0,0.0,0
-108.0,-117.0,-61.0,-83.0,-33.0,-24.0,-34.0,-20.0,0.0,0.0,0.0,0.0,0.0,0.0,0.0,0.0,0
-115.0,-101.0,-54.0,-81.0,-36.0,-27.0,-38.0,-15.0,0.0,0.0,0.0,0.0,0.0,0.0,0.0,0.0,0
-107.0,-73.0,-36.0,-75.0,-39.0,-28.0,-41.0,-29.0,0.0,0.0,0.0,0.0,0.0,0.0,0.0,0.0,0
-67.0,-49.0,-28.0,-64.0,-36.0,-30.0,-43.0,-40.0,0.0,0.0,0.0,0.0,0.0,0.0,0.0,0.0,0
-30.0,-32.0,-20.0,-51.0,-32.0,-23.0,-48.0,-52.0,0.0,0.0,0.0,0.0,0.0,0.0,0.0,0.0,0
-6.0,-4.0,-9.0,-32.0,-29.0,-27.0,-37.0,-59.0,0.0,0.0,0.0,0.0,0.0,0.0,0.0,0.0,0
38.0,26.0,8.0,-27.0,-43.0,-28.0,-39.0,-63.0,0.0,0.0,0.0,0.0,0.0,0.0,0.0,0.0,0
72.0,34.0,9.0,-28.0,-49.0,-35.0,-43.0,-72.0,0.0,0.0,0.0,0.0,0.0,0.0,0.0,0.0,0
73.0,41.0,9.0,-21.0,-52.0,-35.0,-40.0,-64.0,0.0,0.0,0.0,0.0,0.0,0.0,0.0,0.0,0
74.0,39.0,8.0,-17.0,-54.0,-45.0,-46.0,-64.0,0.0,0.0,0.0,0.0,0.0,0.0,0.0,0.0,0
64.0,28.0,5.0,-25.0,-60.0,-56.0,-56.0,-60.0,0.0,0.0,0.0,0.0,0.0,0.0,0.0,0.0,0
23.0,18.0,-9.0,-30.0,-57.0,-50.0,-59.0,-41.0,0.0,0.0,0.0,0.0,0.0,0.0,0.0,0.0,0
-4.0,14.0,-26.0,-28.0,-56.0,-43.0,-51.0,-31.0,0.0,0.0,0.0,0.0,0.0,0.0,0.0,0.0,0
-26.0,-3.0,-35.0,-29.0,-51.0,-34.0,-43.0,-26.0,0.0,0.0,0.0,0.0,0.0,0.0,0.0,0.0,0
-58.0,-27.0,-52.0,-39.0,-50.0,-41.0,-36.0,-21.0,0.0,0.0,0.0,0.0,0.0,0.0,0.0,0.0,0
-58.0,-52.0,-72.0,-55.0,-47.0,-42.0,-33.0,-27.0,0.0,0.0,0.0,0.0,0.0,0.0,0.0,0.0,0
-61.0,-67.0,-80.0,-61.0,-42.0,-37.0,-30.0,-20.0,0.0,0.0,0.0,0.0,0.0,0.0,0.0,0.0,0
-88.0,-80.0,-80.0,-59.0,-30.0,-30.0,-26.0,-19.0,0.0,0.0,0.0,0.0,0.0,0.0,0.0,0.0,0
-109.0,-86.0,-82.0,-61.0,-19.0,-23.0,-24.0,-21.0,0.0,0.0,0.0,0.0,0.0,0.0,0.0,0.0,0
-115.0,-98.0,-84.0,-63.0,-9.0,-16.0,-19.0,-25.0,0.0,0.0,0.0,0.0,0.0,0.0,0.0,0.0,0
-115.0,-113.0,-85.0,-56.0,-12.0,-24.0,-19.0,-21.0,0.0,0.0,0.0,0.0,0.0,0.0,0.0,0.0,0
-128.0,-104.0,-80.0,-51.0,-22.0,-31.0,-16.0,-29.0,0.0,0.0,0.0,0.0,0.0,0.0,0.0,0.0,0
-120.0,-80.0,-73.0,-48.0,-25.0,-31.0,-31.0,-41.0,0.0,0.0,0.0,0.0,0.0,0.0,0.0,0.0,0
-78.0,-62.0,-61.0,-37.0,-18.0,-35.0,-36.0,-55.0,0.0,0.0,0.0,0.0,0.0,0.0,0.0,0.0,0
-35.0,-45.0,-43.0,-27.0,-30.0,-42.0,-36.0,-61.0,0.0,0.0,0.0,0.0,0.0,0.0,0.0,0.0,0
-8.0,-27.0,-35.0,-22.0,-36.0,-46.0,-36.0,-70.0,0.0,0.0,0.0,0.0,0.0,0.0,0.0,0.0,0
29.0,-5.0,-16.0,-11.0,-41.0,-44.0,-37.0,-75.0,0.0,0.0,0.0,0.0,0.0,0.0,0.0,0.0,0
54.0,20.0,4.0,-9.0,-47.0,-40.0,-38.0,-68.0,0.0,0.0,0.0,0.0,0.0,0.0,0.0,0.0,0
64.0,21.0,7.0,-18.0,-50.0,-52.0,-38.0,-68.0,0.0,0.0,0.0,0.0,0.0,0.0,0.0,0.0,0
69.0,28.0,9.0,-25.0,-56.0,-51.0,-35.0,-67.0,0.0,0.0,0.0,0.0,0.0,0.0,0.0,0.0,0
61.0,29.0,10.0,-37.0,-65.0,-54.0,-43.0,-53.0,0.0,0.0,0.0,0.0,0.0,0.0,0.0,0.0,0
23.0,11.0,-10.0,-48.0,-64.0,-59.0,-44.0,-43.0,0.0,0.0,0.0,0.0,0.0,0.0,0.0,0.0,0
-5.0,1.0,-17.0,-46.0,-56.0,-50.0,-34.0,-43.0,0.0,0.0,0.0,0.0,0.0,0.0,0.0,0.0,0
-25.0,-10.0,-28.0,-47.0,-40.0,-44.0,-22.0,-36.0,0.0,0.0,0.0,0.0,0.0,0.0,0.0,0.0,0
-41.0,-23.0,-34.0,-45.0,-32.0,-29.0,-20.0,-30.0,0.0,0.0,0.0,0.0,0.0,0.0,0.0,0.0,0
-39.0,-49.0,-44.0,-36.0,-17.0,-14.0,-24.0,-24.0,0.0,0.0,0.0,0.0,0.0,0.0,0.0,0.0,0
-47.0,-72.0,-62.0,-36.0,-4.0,-20.0,-24.0,-25.0,0.0,0.0,0.0,0.0,0.0,0.0,0.0,0.0,0
-80.0,-87.0,-67.0,-33.0,1.0,-38.0,-17.0,-25.0,0.0,0.0,0.0,0.0,0.0,0.0,0.0,0.0,0
-105.0,-100.0,-68.0,-21.0,12.0,-25.0,-15.0,-16.0,0.0,0.0,0.0,0.0,0.0,0.0,0.0,0.0,0
-120.0,-104.0,-73.0,-18.0,16.0,-1.0,-21.0,-17.0,0.0,0.0,0.0,0.0,0.0,0.0,0.0,0.0,0
-111.0,-99.0,-72.0,-15.0,15.0,20.0,-25.0,-18.0,0.0,0.0,0.0,0.0,0.0,0.0,0.0,0.0,0
-117.0,-75.0,-59.0,-9.0,18.0,33.0,-26.0,-18.0,0.0,0.0,0.0,0.0,0.0,0.0,0.0,0.0,0
-108.0,-47.0,-38.0,9.0,13.0,39.0,-24.0,-32.0,0.0,0.0,0.0,0.0,0.0,0.0,0.0,0.0,0
-72.0,-22.0,-20.0,14.0,7.0,37.0,-24.0,-44.0,0.0,0.0,0.0,0.0,0.0,0.0,0.0,0.0,0
-28.0,-18.0,-7.0,10.0,7.0,29.0,-23.0,-45.0,0.0,0.0,0.0,0.0,0.0,0.0,0.0,0.0,0
-1.0,-2.0,3.0,15.0,-1.0,-5.0,-29.0,-54.0,0.0,0.0,0.0,0.0,0.0,0.0,0.0,0.0,0
33.0,30.0,22.0,18.0,-19.0,-38.0,-36.0,-66.0,0.0,0.0,0.0,0.0,0.0,0.0,0.0,0.0,0
57.0,32.0,29.0,17.0,-45.0,-57.0,-35.0,-59.0,0.0,0.0,0.0,0.0,0.0,0.0,0.0,0.0,0
61.0,30.0,29.0,1.0,-58.0,-65.0,-34.0,-53.0,0.0,0.0,0.0,0.0,0.0,0.0,0.0,0.0,0
66.0,27.0,27.0,-12.0,-60.0,-67.0,-36.0,-54.0,0.0,0.0,0.0,0.0,0.0,0.0,0.0,0.0,0
53.0,25.0,8.0,-27.0,-71.0,-70.0,-29.0,-37.0,0.0,0.0,0.0,0.0,0.0,0.0,0.0,0.0,0
15.0,25.0,-7.0,-47.0,-67.0,-70.0,-36.0,-20.0,0.0,0.0,0.0,0.0,0.0,0.0,0.0,0.0,0
-1.0,26.0,-21.0,-51.0,-58.0,-61.0,-36.0,-15.0,0.0,0.0,0.0,0.0,0.0,0.0,0.0,0.0,0
-19.0,16.0,-40.0,-59.0,-49.0,-39.0,-29.0,-19.0,0.0,0.0,0.0,0.0,0.0,0.0,0.0,0.0,0
-33.0,-1.0,-57.0,-58.0,-41.0,-23.0,-30.0,-19.0,0.0,0.0,0.0,0.0,0.0,0.0,0.0,0.0,0
-39.0,-39.0,-76.0,-59.0,-30.0,-17.0,-20.0,-21.0,0.0,0.0,0.0,0.0,0.0,0.0,0.0,0.0,0
-44.0,-104.0,-91.0,-67.0,-25.0,-27.0,-24.0,-20.0,0.0,0.0,0.0,0.0,0.0,0.0,0.0,0.0,0
-70.0,-119.0,-97.0,-77.0,-31.0,-35.0,-36.0,-18.0,0.0,0.0,0.0,0.0,0.0,0.0,0.0,0.0,0
-88.0,-106.0,-105.0,-81.0,-38.0,-45.0,-42.0,-18.0,0.0,0.0,0.0,0.0,0.0,0.0,0.0,0.0,0
-102.0,-105.0,-108.0,-84.0,-43.0,-44.0,-45.0,-30.0,0.0,0.0,0.0,0.0,0.0,0.0,0.0,0.0,0
-108.0,-113.0,-112.0,-84.0,-44.0,-33.0,-46.0,-29.0,0.0,0.0,0.0,0.0,0.0,0.0,0.0,0.0,0
-116.0,-97.0,-105.0,-81.0,-43.0,-40.0,-42.0,-19.0,0.0,0.0,0.0,0.0,0.0,0.0,0.0,0.0,0
-105.0,-79.0,-89.0,-60.0,-41.0,-41.0,-46.0,-35.0,0.0,0.0,0.0,0.0,0.0,0.0,0.0,0.0,0
-84.0,-57.0,-77.0,-46.0,-46.0,-31.0,-52.0,-46.0,0.0,0.0,0.0,0.0,0.0,0.0,0.0,0.0,0
-48.0,-39.0,-61.0,-50.0,-54.0,-36.0,-49.0,-54.0,0.0,0.0,0.0,0.0,0.0,0.0,0.0,0.0,0
-30.0,-30.0,-41.0,-41.0,-47.0,-36.0,-43.0,-56.0,0.0,0.0,0.0,0.0,0.0,0.0,0.0,0.0,0
4.0,-10.0,-34.0,-38.0,-52.0,-38.0,-46.0,-56.0,0.0,0.0,0.0,0.0,0.0,0.0,0.0,0.0,0
29.0,3.0,-20.0,-43.0,-58.0,-53.0,-49.0,-51.0,0.0,0.0,0.0,0.0,0.0,0.0,0.0,0.0,0
32.0,3.0,-10.0,-42.0,-58.0,-54.0,-45.0,-44.0,0.0,0.0,0.0,0.0,0.0,0.0,0.0,0.0,0
43.0,7.0,-3.0,-44.0,-53.0,-53.0,-41.0,-35.0,0.0,0.0,0.0,0.0,0.0,0.0,0.0,0.0,0
28.0,-3.0,7.0,-35.0,-48.0,-50.0,-36.0,-32.0,0.0,0.0,0.0,0.0,0.0,0.0,0.0,0.0,0
-13.0,-8.0,7.0,-38.0,-39.0,-46.0,-30.0,-13.0,0.0,0.0,0.0,0.0,0.0,0.0,0.0,0.0,0
-31.0,-14.0,-6.0,-46.0,-35.0,-42.0,-20.0,-5.0,0.0,0.0,0.0,0.0,0.0,0.0,0.0,0.0,0
-34.0,-20.0,-17.0,-47.0,-24.0,-27.0,-17.0,-5.0,0.0,0.0,0.0,0.0,0.0,0.0,0.0,0.0,0
-40.0,-27.0,-25.0,-38.0,-1.0,-12.0,-8.0,-8.0,0.0,0.0,0.0,0.0,0.0,0.0,0.0,0.0,0
-40.0,-36.0,-37.0,-33.0,6.0,3.0,0.0,-7.0,0.0,0.0,0.0,0.0,0.0,0.0,0.0,0.0,0
-47.0,-54.0,-44.0,-30.0,16.0,7.0,3.0,-5.0,0.0,0.0,0.0,0.0,0.0,0.0,0.0,0.0,0
-75.0,-67.0,-39.0,-18.0,22.0,8.0,-5.0,-2.0,0.0,0.0,0.0,0.0,0.0,0.0,0.0,0.0,0
-87.0,-71.0,-32.0,-6.0,16.0,2.0,-15.0,-14.0,0.0,0.0,0.0,0.0,0.0,0.0,0.0,0.0,0
-86.0,-77.0,-35.0,0.0,12.0,-5.0,-19.0,-22.0,0.0,0.0,0.0,0.0,0.0,0.0,0.0,0.0,0
-91.0,-95.0,-30.0,9.0,17.0,-10.0,-24.0,-19.0,0.0,0.0,0.0,0.0,0.0,0.0,0.0,0.0,0
-114.0,-98.0,-12.0,21.0,15.0,-20.0,-27.0,-19.0,0.0,0.0,0.0,0.0,0.0,0.0,0.0,0.0,0
-110.0,-93.0,-3.0,17.0,6.0,-40.0,-37.0,-27.0,0.0,0.0,0.0,0.0,0.0,0.0,0.0,0.0,0
-85.0,-69.0,0.0,21.0,-3.0,-43.0,-49.0,-39.0,0.0,0.0,0.0,0.0,0.0,0.0,0.0,0.0,0
-56.0,-46.0,2.0,19.0,-14.0,-39.0,-45.0,-43.0,0.0,0.0,0.0,0.0,0.0,0.0,0.0,0.0,0
-32.0,-27.0,6.0,8.0,-34.0,-37.0,-39.0,-40.0,0.0,0.0,0.0,0.0,0.0,0.0,0.0,0.0,0
1.0,-8.0,-4.0,-8.0,-52.0,-37.0,-36.0,-48.0,0.0,0.0,0.0,0.0,0.0,0.0,0.0,0.0,0
31.0,7.0,-18.0,-33.0,-68.0,-42.0,-43.0,-44.0,0.0,0.0,0.0,0.0,0.0,0.0,0.0,0.0,0
32.0,21.0,-26.0,-50.0,-70.0,-26.0,-42.0,-41.0,0.0,0.0,0.0,0.0,0.0,0.0,0.0,0.0,0
40.0,18.0,-34.0,-60.0,-67.0,-38.0,-34.0,-39.0,0.0,0.0,0.0,0.0,0.0,0.0,0.0,0.0,0
33.0,-8.0,-46.0,-62.0,-56.0,-52.0,-34.0,-20.0,0.0,0.0,0.0,0.0,0.0,0.0,0.0,0.0,0
-2.0,-11.0,-50.0,-60.0,-49.0,-65.0,-35.0,-11.0,0.0,0.0,0.0,0.0,0.0,0.0,0.0,0.0,0
-23.0,-12.0,-54.0,-62.0,-44.0,-61.0,-33.0,-6.0,0.0,0.0,0.0,0.0,0.0,0.0,0.0,0.0,0
-31.0,-24.0,-53.0,-63.0,-45.0,-43.0,-27.0,-7.0,0.0,0.0,0.0,0.0,0.0,0.0,0.0,0.0,0
-37.0,-31.0,-59.0,-59.0,-31.0,-22.0,-23.0,-2.0,0.0,0.0,0.0,0.0,0.0,0.0,0.0,0.0,0
-27.0,-40.0,-71.0,-56.0,-24.0,-15.0,-16.0,-7.0,0.0,0.0,0.0,0.0,0.0,0.0,0.0,0.0,0
-30.0,-55.0,-68.0,-62.0,-24.0,-20.0,-24.0,-8.0,0.0,0.0,0.0,0.0,0.0,0.0,0.0,0.0,0
-55.0,-61.0,-66.0,-66.0,-34.0,-19.0,-24.0,3.0,0.0,0.0,0.0,0.0,0.0,0.0,0.0,0.0,0
-74.0,-77.0,-74.0,-67.0,-36.0,-3.0,-23.0,1.0,0.0,0.0,0.0,0.0,0.0,0.0,0.0,0.0,0
-73.0,-81.0,-79.0,-66.0,-39.0,-14.0,-28.0,-9.0,0.0,0.0,0.0,0.0,0.0,0.0,0.0,0.0,0
-76.0,-86.0,-77.0,-54.0,-34.0,-33.0,-39.0,-12.0,0.0,0.0,0.0,0.0,0.0,0.0,0.0,0.0,0
-87.0,-79.0,-76.0,-55.0,-40.0,-39.0,-40.0,-23.0,0.0,0.0,0.0,0.0,0.0,0.0,0.0,0.0,0
-75.0,-61.0,-67.0,-53.0,-40.0,-55.0,-38.0,-32.0,0.0,0.0,0.0,0.0,0.0,0.0,0.0,0.0,0
-46.0,-48.0,-51.0,-42.0,-43.0,-58.0,-49.0,-42.0,0.0,0.0,0.0,0.0,0.0,0.0,0.0,0.0,0
-17.0,-29.0,-39.0,-32.0,-47.0,-64.0,-57.0,-56.0,0.0,0.0,0.0,0.0,0.0,0.0,0.0,0.0,0
-8.0,-11.0,-17.0,-26.0,-45.0,-67.0,-53.0,-58.0,0.0,0.0,0.0,0.0,0.0,0.0,0.0,0.0,0
18.0,4.0,2.0,-23.0,-47.0,-60.0,-50.0,-53.0,0.0,0.0,0.0,0.0,0.0,0.0,0.0,0.0,0
37.0,4.0,12.0,-18.0,-49.0,-48.0,-49.0,-48.0,0.0,0.0,0.0,0.0,0.0,0.0,0.0,0.0,0
40.0,1.0,27.0,-16.0,-53.0,-44.0,-52.0,-38.0,0.0,0.0,0.0,0.0,0.0,0.0,0.0,0.0,0
44.0,2.0,26.0,-19.0,-52.0,-45.0,-46.0,-36.0,0.0,0.0,0.0,0.0,0.0,0.0,0.0,0.0,0
42.0,4.0,18.0,-28.0,-43.0,-40.0,-44.0,-25.0,0.0,0.0,0.0,0.0,0.0,0.0,0.0,0.0,0
5.0,4.0,4.0,-31.0,-38.0,-34.0,-43.0,-16.0,0.0,0.0,0.0,0.0,0.0,0.0,0.0,0.0,0
-17.0,7.0,0.0,-24.0,-27.0,-23.0,-40.0,-15.0,0.0,0.0,0.0,0.0,0.0,0.0,0.0,0.0,0
-25.0,3.0,-10.0,-15.0,-18.0,-12.0,-31.0,-8.0,0.0,0.0,0.0,0.0,0.0,0.0,0.0,0.0,0
-35.0,-16.0,-15.0,6.0,-7.0,14.0,-32.0,-10.0,0.0,0.0,0.0,0.0,0.0,0.0,0.0,0.0,0
-26.0,-37.0,-27.0,14.0,1.0,35.0,-33.0,-19.0,0.0,0.0,0.0,0.0,0.0,0.0,0.0,0.0,0
-23.0,-50.0,-38.0,12.0,-3.0,34.0,-29.0,-9.0,0.0,0.0,0.0,0.0,0.0,0.0,0.0,0.0,0
-42.0,-61.0,-51.0,1.0,-5.0,16.0,-21.0,-12.0,0.0,0.0,0.0,0.0,0.0,0.0,0.0,0.0,0
-55.0,-72.0,-57.0,-13.0,-6.0,6.0,-22.0,-12.0,0.0,0.0,0.0,0.0,0.0,0.0,0.0,0.0,0
-64.0,-71.0,-62.0,-19.0,-13.0,2.0,-16.0,-20.0,0.0,0.0,0.0,0.0,0.0,0.0,0.0,0.0,0
-61.0,-81.0,-68.0,-37.0,-26.0,-3.0,-17.0,-21.0,0.0,0.0,0.0,0.0,0.0,0.0,0.0,0.0,0
-85.0,-85.0,-72.0,-53.0,-32.0,-10.0,-25.0,-21.0,0.0,0.0,0.0,0.0,0.0,0.0,0.0,0.0,0
-89.0,-66.0,-62.0,-51.0,-24.0,-21.0,-26.0,-30.0,0.0,0.0,0.0,0.0,0.0,0.0,0.0,0.0,0
-62.0,-52.0,-50.0,-43.0,-31.0,-29.0,-27.0,-35.0,0.0,0.0,0.0,0.0,0.0,0.0,0.0,0.0,0
-34.0,-41.0,-40.0,-45.0,-41.0,-32.0,-27.0,-38.0,0.0,0.0,0.0,0.0,0.0,0.0,0.0,0.0,0
-25.0,-28.0,-45.0,-48.0,-39.0,-31.0,-32.0,-40.0,0.0,0.0,0.0,0.0,0.0,0.0,0.0,0.0,0
3.0,-17.0,-38.0,-44.0,-40.0,-41.0,-34.0,-46.0,0.0,0.0,0.0,0.0,0.0,0.0,0.0,0.0,0
15.0,-14.0,-25.0,-50.0,-41.0,-69.0,-36.0,-46.0,0.0,0.0,0.0,0.0,0.0,0.0,0.0,0.0,0
15.0,-7.0,-14.0,-42.0,-36.0,-74.0,-42.0,-37.0,0.0,0.0,0.0,0.0,0.0,0.0,0.0,0.0,0
20.0,-6.0,-8.0,-35.0,-39.0,-59.0,-42.0,-32.0,0.0,0.0,0.0,0.0,0.0,0.0,0.0,0.0,0
15.0,-25.0,0.0,-36.0,-34.0,-38.0,-44.0,-22.0,0.0,0.0,0.0,0.0,0.0,0.0,0.0,0.0,0
-19.0,-30.0,1.0,-45.0,-24.0,-27.0,-38.0,-9.0,0.0,0.0,0.0,0.0,0.0,0.0,0.0,0.0,0
-39.0,-23.0,-2.0,-38.0,-18.0,-4.0,-32.0,1.0,0.0,0.0,0.0,0.0,0.0,0.0,0.0,0.0,0
-40.0,-34.0,6.0,-33.0,-18.0,12.0,-24.0,3.0,0.0,0.0,0.0,0.0,0.0,0.0,0.0,0.0,0
-44.0,-46.0,-2.0,-30.0,-10.0,12.0,-22.0,-5.0,0.0,0.0,0.0,0.0,0.0,0.0,0.0,0.0,0
-46.0,-54.0,-10.0,-37.0,-14.0,-3.0,-25.0,-11.0,0.0,0.0,0.0,0.0,0.0,0.0,0.0,0.0,0
-42.0,-67.0,-20.0,-60.0,-33.0,-36.0,-25.0,-24.0,0.0,0.0,0.0,0.0,0.0,0.0,0.0,0.0,0
-56.0,-73.0,-41.0,-75.0,-38.0,-50.0,-34.0,-23.0,0.0,0.0,0.0,0.0,0.0,0.0,0.0,0.0,0
-69.0,-75.0,-66.0,-89.0,-44.0,-56.0,-39.0,-29.0,0.0,0.0,0.0,0.0,0.0,0.0,0.0,0.0,0
-71.0,-77.0,-90.0,-92.0,-39.0,-61.0,-37.0,-34.0,0.0,0.0,0.0,0.0,0.0,0.0,0.0,0.0,0
-67.0,-90.0,-105.0,-90.0,-40.0,-60.0,-34.0,-36.0,0.0,0.0,0.0,0.0,0.0,0.0,0.0,0.0,0
-79.0,-77.0,-100.0,-81.0,-33.0,-60.0,-25.0,-51.0,0.0,0.0,0.0,0.0,0.0,0.0,0.0,0.0,0
-86.0,-61.0,-88.0,-55.0,-30.0,-55.0,-22.0,-50.0,0.0,0.0,0.0,0.0,0.0,0.0,0.0,0.0,0
-61.0,-39.0,-67.0,-34.0,-20.0,-50.0,-23.0,-61.0,0.0,0.0,0.0,0.0,0.0,0.0,0.0,0.0,0
-31.0,-31.0,-37.0,-23.0,-19.0,-53.0,-25.0,-71.0,0.0,0.0,0.0,0.0,0.0,0.0,0.0,0.0,0
-6.0,-15.0,-7.0,-12.0,-19.0,-51.0,-28.0,-73.0,0.0,0.0,0.0,0.0,0.0,0.0,0.0,0.0,0
15.0,-2.0,21.0,7.0,-13.0,-43.0,-24.0,-76.0,0.0,0.0,0.0,0.0,0.0,0.0,0.0,0.0,0
29.0,2.0,42.0,24.0,-5.0,-38.0,-19.0,-69.0,0.0,0.0,0.0,0.0,0.0,0.0,0.0,0.0,0
19.0,9.0,42.0,26.0,-13.0,-44.0,-22.0,-59.0,0.0,0.0,0.0,0.0,0.0,0.0,0.0,0.0,0
24.0,12.0,47.0,21.0,-30.0,-50.0,-27.0,-59.0,0.0,0.0,0.0,0.0,0.0,0.0,0.0,0.0,0
23.0,2.0,37.0,17.0,-28.0,-41.0,-35.0,-45.0,0.0,0.0,0.0,0.0,0.0,0.0,0.0,0.0,0
-15.0,-3.0,26.0,16.0,-14.0,-31.0,-34.0,-37.0,0.0,0.0,0.0,0.0,0.0,0.0,0.0,0.0,0
-23.0,-10.0,11.0,15.0,-11.0,-35.0,-30.0,-27.0,0.0,0.0,0.0,0.0,0.0,0.0,0.0,0.0,0
-22.0,-21.0,-16.0,3.0,-19.0,-42.0,-30.0,-24.0,0.0,0.0,0.0,0.0,0.0,0.0,0.0,0.0,0
-34.0,-37.0,-47.0,-15.0,-17.0,-35.0,-41.0,-27.0,0.0,0.0,0.0,0.0,0.0,0.0,0.0,0.0,0
-27.0,-46.0,-56.0,-21.0,-18.0,-15.0,-37.0,-33.0,0.0,0.0,0.0,0.0,0.0,0.0,0.0,0.0,0
-26.0,-57.0,-63.0,-32.0,-21.0,-14.0,-41.0,-29.0,0.0,0.0,0.0,0.0,0.0,0.0,0.0,0.0,0
-44.0,-65.0,-72.0,-45.0,-32.0,-26.0,-41.0,-31.0,0.0,0.0,0.0,0.0,0.0,0.0,0.0,0.0,0
-61.0,-74.0,-85.0,-56.0,-42.0,-31.0,-44.0,-32.0,0.0,0.0,0.0,0.0,0.0,0.0,0.0,0.0,0
-64.0,-75.0,-97.0,-60.0,-45.0,-33.0,-47.0,-39.0,0.0,0.0,0.0,0.0,0.0,0.0,0.0,0.0,0
-71.0,-78.0,-93.0,-70.0,-56.0,-38.0,-48.0,-38.0,0.0,0.0,0.0,0.0,0.0,0.0,0.0,0.0,0
-87.0,-68.0,-85.0,-70.0,-58.0,-49.0,-49.0,-38.0,0.0,0.0,0.0,0.0,0.0,0.0,0.0,0.0,0
-86.0,-61.0,-76.0,-65.0,-60.0,-46.0,-45.0,-43.0,0.0,0.0,0.0,0.0,0.0,0.0,0.0,0.0,0
-69.0,-49.0,-64.0,-72.0,-62.0,-39.0,-43.0,-53.0,0.0,0.0,0.0,0.0,0.0,0.0,0.0,0.0,0
-36.0,-40.0,-48.0,-71.0,-57.0,-39.0,-46.0,-56.0,0.0,0.0,0.0,0.0,0.0,0.0,0.0,0.0,0
-28.0,-24.0,-44.0,-66.0,-53.0,-40.0,-47.0,-62.0,0.0,0.0,0.0,0.0,0.0,0.0,0.0,0.0,0
-9.0,-19.0,-32.0,-63.0,-53.0,-39.0,-48.0,-58.0,0.0,0.0,0.0,0.0,0.0,0.0,0.0,0.0,0
8.0,-20.0,-19.0,-63.0,-57.0,-45.0,-52.0,-47.0,0.0,0.0,0.0,0.0,0.0,0.0,0.0,0.0,0
10.0,-15.0,-15.0,-50.0,-45.0,-40.0,-46.0,-37.0,0.0,0.0,0.0,0.0,0.0,0.0,0.0,0.0,0
11.0,-16.0,-15.0,-35.0,-32.0,-38.0,-52.0,-41.0,0.0,0.0,0.0,0.0,0.0,0.0,0.0,0.0,0
17.0,-17.0,-11.0,-23.0,-21.0,-31.0,-39.0,-28.0,0.0,0.0,0.0,0.0,0.0,0.0,0.0,0.0,0
-23.0,-26.0,-12.0,-8.0,-21.0,-30.0,-37.0,-10.0,0.0,0.0,0.0,0.0,0.0,0.0,0.0,0.0,0
-36.0,-33.0,-9.0,1.0,-11.0,-21.0,-34.0,-5.0,0.0,0.0,0.0,0.0,0.0,0.0,0.0,0.0,0
-39.0,-38.0,10.0,18.0,11.0,-21.0,-33.0,2.0,0.0,0.0,0.0,0.0,0.0,0.0,0.0,0.0,0
-37.0,-36.0,20.0,40.0,20.0,-12.0,-29.0,2.0,0.0,0.0,0.0,0.0,0.0,0.0,0.0,0.0,0
-32.0,-33.0,23.0,48.0,25.0,-6.0,-27.0,-5.0,0.0,0.0,0.0,0.0,0.0,0.0,0.0,0.0,0
-22.0,-42.0,12.0,33.0,23.0,-3.0,-33.0,-4.0,0.0,0.0,0.0,0.0,0.0,0.0,0.0,0.0,0
-39.0,-44.0,-3.0,23.0,12.0,-3.0,-24.0,-9.0,0.0,0.0,0.0,0.0,0.0,0.0,0.0,0.0,0
-55.0,-43.0,-25.0,6.0,10.0,0.0,-21.0,-11.0,0.0,0.0,0.0,0.0,0.0,0.0,0.0,0.0,0
-60.0,-45.0,-43.0,-24.0,-8.0,-8.0,-19.0,-22.0,0.0,0.0,0.0,0.0,0.0,0.0,0.0,0.0,0
-68.0,-57.0,-54.0,-46.0,-20.0,-20.0,-24.0,-25.0,0.0,0.0,0.0,0.0,0.0,0.0,0.0,0.0,0
-81.0,-48.0,-70.0,-68.0,-35.0,-24.0,-29.0,-26.0,0.0,0.0,0.0,0.0,0.0,0.0,0.0,0.0,0
-84.0,-47.0,-69.0,-75.0,-47.0,-31.0,-25.0,-40.0,0.0,0.0,0.0,0.0,0.0,0.0,0.0,0.0,0
-63.0,-42.0,-67.0,-80.0,-59.0,-56.0,-35.0,-53.0,0.0,0.0,0.0,0.0,0.0,0.0,0.0,0.0,0
-33.0,-32.0,-53.0,-72.0,-63.0,-60.0,-32.0,-52.0,0.0,0.0,0.0,0.0,0.0,0.0,0.0,0.0,0
-29.0,-24.0,-43.0,-74.0,-62.0,-56.0,-28.0,-57.0,0.0,0.0,0.0,0.0,0.0,0.0,0.0,0.0,0
-4.0,-18.0,-45.0,-77.0,-70.0,-55.0,-31.0,-66.0,0.0,0.0,0.0,0.0,0.0,0.0,0.0,0.0,0
29.0,-21.0,-40.0,-81.0,-78.0,-48.0,-28.0,-62.0,0.0,0.0,0.0,0.0,0.0,0.0,0.0,0.0,0
22.0,-22.0,-45.0,-79.0,-71.0,-38.0,-23.0,-60.0,0.0,0.0,0.0,0.0,0.0,0.0,0.0,0.0,0
16.0,-21.0,-41.0,-79.0,-67.0,-9.0,-18.0,-53.0,0.0,0.0,0.0,0.0,0.0,0.0,0.0,0.0,0
18.0,-26.0,-27.0,-76.0,-56.0,8.0,-7.0,-40.0,0.0,0.0,0.0,0.0,0.0,0.0,0.0,0.0,0
-17.0,-26.0,-24.0,-70.0,-56.0,-20.0,-10.0,-27.0,0.0,0.0,0.0,0.0,0.0,0.0,0.0,0.0,0
-20.0,-26.0,-21.0,-58.0,-57.0,-50.0,-12.0,-24.0,0.0,0.0,0.0,0.0,0.0,0.0,0.0,0.0,0
-10.0,-31.0,-12.0,-40.0,-45.0,-57.0,-8.0,-19.0,0.0,0.0,0.0,0.0,0.0,0.0,0.0,0.0,0
-28.0,-31.0,-9.0,-16.0,-39.0,-45.0,-12.0,-22.0,0.0,0.0,0.0,0.0,0.0,0.0,0.0,0.0,0
-23.0,-30.0,-7.0,-5.0,-33.0,-25.0,-18.0,-35.0,0.0,0.0,0.0,0.0,0.0,0.0,0.0,0.0,0
-14.0,-46.0,-27.0,-10.0,-32.0,-25.0,-23.0,-42.0,0.0,0.0,0.0,0.0,0.0,0.0,0.0,0.0,0
-33.0,-46.0,-43.0,-4.0,-28.0,-20.0,-10.0,-31.0,0.0,0.0,0.0,0.0,0.0,0.0,0.0,0.0,0
-49.0,-45.0,-64.0,1.0,-28.0,-17.0,1.0,-29.0,0.0,0.0,0.0,0.0,0.0,0.0,0.0,0.0,0
-65.0,-41.0,-71.0,11.0,-32.0,-26.0,-13.0,-35.0,0.0,0.0,0.0,0.0,0.0,0.0,0.0,0.0,0
-64.0,-45.0,-70.0,11.0,-25.0,-36.0,-25.0,-37.0,0.0,0.0,0.0,0.0,0.0,0.0,0.0,0.0,0
-72.0,-38.0,-67.0,9.0,-30.0,-38.0,-30.0,-43.0,0.0,0.0,0.0,0.0,0.0,0.0,0.0,0.0,0
-74.0,-31.0,-51.0,8.0,-24.0,-41.0,-37.0,-46.0,0.0,0.0,0.0,0.0,0.0,0.0,0.0,0.0,0
-59.0,-20.0,-25.0,24.0,-16.0,-44.0,-42.0,-55.0,0.0,0.0,0.0,0.0,0.0,0.0,0.0,0.0,0
-39.0,-9.0,-8.0,15.0,-23.0,-71.0,-47.0,-61.0,0.0,0.0,0.0,0.0,0.0,0.0,0.0,0.0,0
-25.0,2.0,15.0,6.0,-26.0,-76.0,-54.0,-56.0,0.0,0.0,0.0,0.0,0.0,0.0,0.0,0.0,0
-7.0,7.0,34.0,15.0,-22.0,-57.0,-52.0,-55.0,0.0,0.0,0.0,0.0,0.0,0.0,0.0,0.0,0
8.0,1.0,41.0,7.0,-21.0,-45.0,-52.0,-51.0,0.0,0.0,0.0,0.0,0.0,0.0,0.0,0.0,0
5.0,-5.0,36.0,-5.0,-24.0,-39.0,-50.0,-44.0,0.0,0.0,0.0,0.0,0.0,0.0,0.0,0.0,0
11.0,-10.0,32.0,-9.0,-32.0,-14.0,-46.0,-39.0,0.0,0.0,0.0,0.0,0.0,0.0,0.0,0.0,0
10.0,-21.0,12.0,-21.0,-43.0,-12.0,-45.0,-27.0,0.0,0.0,0.0,0.0,0.0,0.0,0.0,0.0,0
-22.0,-26.0,-4.0,-38.0,-59.0,-16.0,-47.0,-18.0,0.0,0.0,0.0,0.0,0.0,0.0,0.0,0.0,0
-39.0,-42.0,-44.0,-66.0,-76.0,-29.0,-44.0,-17.0,0.0,0.0,0.0,0.0,0.0,0.0,0.0,0.0,0
-39.0,-61.0,-77.0,-93.0,-86.0,-62.0,-45.0,-9.0,0.0,0.0,0.0,0.0,0.0,0.0,0.0,0.0,0
-41.0,-69.0,-96.0,-106.0,-96.0,-68.0,-51.0,-9.0,0.0,0.0,0.0,0.0,0.0,0.0,0.0,0.0,0
-25.0,-71.0,-111.0,-122.0,-94.0,-68.0,-49.0,-14.0,0.0,0.0,0.0,0.0,0.0,0.0,0.0,0.0,0
-24.0,-80.0,-128.0,-124.0,-82.0,-62.0,-51.0,-8.0,0.0,0.0,0.0,0.0,0.0,0.0,0.0,0.0,0
-40.0,-85.0,-130.0,-127.0,-84.0,-56.0,-44.0,-10.0,0.0,0.0,0.0,0.0,0.0,0.0,0.0,0.0,0
-51.0,-79.0,-116.0,-118.0,-80.0,-51.0,-38.0,-18.0,0.0,0.0,0.0,0.0,0.0,0.0,0.0,0.0,0
-53.0,-69.0,-112.0,-97.0,-71.0,-45.0,-37.0,-14.0,0.0,0.0,0.0,0.0,0.0,0.0,0.0,0.0,0
-58.0,-61.0,-99.0,-88.0,-59.0,-35.0,-34.0,-12.0,0.0,0.0,0.0,0.0,0.0,0.0,0.0,0.0,0
-82.0,-50.0,-92.0,-71.0,-45.0,-24.0,-30.0,-13.0,0.0,0.0,0.0,0.0,0.0,0.0,0.0,0.0,0
-82.0,-38.0,-73.0,-49.0,-39.0,-24.0,-29.0,-25.0,0.0,0.0,0.0,0.0,0.0,0.0,0.0,0.0,0
-64.0,-22.0,-57.0,-39.0,-33.0,-24.0,-38.0,-37.0,0.0,0.0,0.0,0.0,0.0,0.0,0.0,0.0,0
-52.0,-22.0,-42.0,-28.0,-29.0,-29.0,-45.0,-40.0,0.0,0.0,0.0,0.0,0.0,0.0,0.0,0.0,0
-39.0,-17.0,-30.0,-30.0,-37.0,-45.0,-41.0,-46.0,0.0,0.0,0.0,0.0,0.0,0.0,0.0,0.0,0
-7.0,-14.0,-11.0,-19.0,-33.0,-42.0,-48.0,-50.0,0.0,0.0,0.0,0.0,0.0,0.0,0.0,0.0,0
3.0,-14.0,5.0,-2.0,-14.0,-43.0,-47.0,-44.0,0.0,0.0,0.0,0.0,0.0,0.0,0.0,0.0,0
-6.0,-11.0,20.0,8.0,0.0,-35.0,-37.0,-28.0,0.0,0.0,0.0,0.0,0.0,0.0,0.0,0.0,0
3.0,-9.0,25.0,5.0,3.0,-32.0,-34.0,-27.0,0.0,0.0,0.0,0.0,0.0,0.0,0.0,0.0,0
8.0,-19.0,21.0,-5.0,-3.0,-38.0,-37.0,-16.0,0.0,0.0,0.0,0.0,0.0,0.0,0.0,0.0,0
-21.0,-19.0,20.0,-18.0,-6.0,-32.0,-31.0,-6.0,0.0,0.0,0.0,0.0,0.0,0.0,0.0,0.0,0
-31.0,-26.0,12.0,-31.0,-19.0,-32.0,-25.0,-2.0,0.0,0.0,0.0,0.0,0.0,0.0,0.0,0.0,0
-24.0,-37.0,-1.0,-38.0,-22.0,-32.0,-23.0,-6.0,0.0,0.0,0.0,0.0,0.0,0.0,0.0,0.0,0
-26.0,-42.0,-13.0,-34.0,-14.0,-24.0,-22.0,-8.0,0.0,0.0,0.0,0.0,0.0,0.0,0.0,0.0,0
-17.0,-47.0,-24.0,-30.0,-9.0,-14.0,-15.0,-21.0,0.0,0.0,0.0,0.0,0.0,0.0,0.0,0.0,0
-9.0,-46.0,-21.0,-25.0,-11.0,-1.0,-9.0,-17.0,0.0,0.0,0.0,0.0,0.0,0.0,0.0,0.0,0
-26.0,-45.0,-27.0,-22.0,-11.0,0.0,-4.0,-21.0,0.0,0.0,0.0,0.0,0.0,0.0,0.0,0.0,0
-36.0,-49.0,-28.0,-23.0,-9.0,-7.0,-2.0,-28.0,0.0,0.0,0.0,0.0,0.0,0.0,0.0,0.0,0
-49.0,-46.0,-31.0,-18.0,-11.0,-16.0,-15.0,-40.0,0.0,0.0,0.0,0.0,0.0,0.0,0.0,0.0,0
-57.0,-41.0,-23.0,-9.0,-3.0,-18.0,-27.0,-44.0,0.0,0.0,0.0,0.0,0.0,0.0,0.0,0.0,0
-75.0,-26.0,-20.0,0.0,1.0,-9.0,-23.0,-44.0,0.0,0.0,0.0,0.0,0.0,0.0,0.0,0.0,0
-75.0,-13.0,-11.0,10.0,2.0,3.0,-16.0,-51.0,0.0,0.0,0.0,0.0,0.0,0.0,0.0,0.0,0
-66.0,-6.0,5.0,14.0,-2.0,6.0,-18.0,-61.0,0.0,0.0,0.0,0.0,0.0,0.0,0.0,0.0,0
-49.0,-3.0,14.0,13.0,-7.0,-9.0,-30.0,-56.0,0.0,0.0,0.0,0.0,0.0,0.0,0.0,0.0,0
-35.0,-8.0,5.0,9.0,-22.0,-25.0,-32.0,-53.0,0.0,0.0,0.0,0.0,0.0,0.0,0.0,0.0,0
-16.0,-3.0,5.0,10.0,-27.0,-29.0,-35.0,-50.0,0.0,0.0,0.0,0.0,0.0,0.0,0.0,0.0,0
-1.0,-13.0,-4.0,-1.0,-26.0,-38.0,-43.0,-53.0,0.0,0.0,0.0,0.0,0.0,0.0,0.0,0.0,0
4.0,-15.0,-11.0,-5.0,-32.0,-48.0,-46.0,-43.0,0.0,0.0,0.0,0.0,0.0,0.0,0.0,0.0,0
7.0,-18.0,-10.0,-6.0,-35.0,-53.0,-48.0,-39.0,0.0,0.0,0.0,0.0,0.0,0.0,0.0,0.0,0
13.0,-25.0,-8.0,-7.0,-34.0,-56.0,-52.0,-29.0,0.0,0.0,0.0,0.0,0.0,0.0,0.0,0.0,0
-23.0,-15.0,1.0,-17.0,-36.0,-62.0,-46.0,-15.0,0.0,0.0,0.0,0.0,0.0,0.0,0.0,0.0,0
-34.0,-8.0,-3.0,-29.0,-44.0,-57.0,-48.0,-15.0,0.0,0.0,0.0,0.0,0.0,0.0,0.0,0.0,0
-26.0,-11.0,-16.0,-40.0,-55.0,-59.0,-50.0,-16.0,0.0,0.0,0.0,0.0,0.0,0.0,0.0,0.0,0
-31.0,-16.0,-28.0,-48.0,-61.0,-57.0,-50.0,-19.0,0.0,0.0,0.0,0.0,0.0,0.0,0.0,0.0,0
-24.0,-25.0,-50.0,-66.0,-55.0,-49.0,-37.0,-19.0,0.0,0.0,0.0,0.0,0.0,0.0,0.0,0.0,0
-19.0,-41.0,-70.0,-92.0,-62.0,-43.0,-32.0,-15.0,0.0,0.0,0.0,0.0,0.0,0.0,0.0,0.0,0
-35.0,-44.0,-90.0,-100.0,-69.0,-36.0,-42.0,-23.0,0.0,0.0,0.0,0.0,0.0,0.0,0.0,0.0,0
-54.0,-47.0,-101.0,-102.0,-77.0,-37.0,-41.0,-26.0,0.0,0.0,0.0,0.0,0.0,0.0,0.0,0.0,0
-58.0,-46.0,-107.0,-91.0,-76.0,-38.0,-41.0,-34.0,0.0,0.0,0.0,0.0,0.0,0.0,0.0,0.0,0
-72.0,-39.0,-107.0,-77.0,-61.0,-32.0,-38.0,-35.0,0.0,0.0,0.0,0.0,0.0,0.0,0.0,0.0,0
-95.0,-43.0,-90.0,-59.0,-54.0,-27.0,-40.0,-37.0,0.0,0.0,0.0,0.0,0.0,0.0,0.0,0.0,0
-94.0,-37.0,-79.0,-44.0,-47.0,-28.0,-42.0,-42.0,0.0,0.0,0.0,0.0,0.0,0.0,0.0,0.0,0
-74.0,-33.0,-77.0,-30.0,-53.0,-31.0,-43.0,-48.0,0.0,0.0,0.0,0.0,0.0,0.0,0.0,0.0,0
-50.0,-31.0,-75.0,-31.0,-55.0,-31.0,-44.0,-48.0,0.0,0.0,0.0,0.0,0.0,0.0,0.0,0.0,0
-35.0,-22.0,-71.0,-27.0,-45.0,-36.0,-41.0,-52.0,0.0,0.0,0.0,0.0,0.0,0.0,0.0,0.0,0
-17.0,-19.0,-66.0,-19.0,-30.0,-43.0,-40.0,-47.0,0.0,0.0,0.0,0.0,0.0,0.0,0.0,0.0,0
-10.0,-28.0,-56.0,-20.0,-27.0,-50.0,-39.0,-42.0,0.0,0.0,0.0,0.0,0.0,0.0,0.0,0.0,0
-14.0,-26.0,-49.0,-27.0,-15.0,-43.0,-42.0,-38.0,0.0,0.0,0.0,0.0,0.0,0.0,0.0,0.0,0
-9.0,-22.0,-36.0,-21.0,5.0,-43.0,-39.0,-32.0,0.0,0.0,0.0,0.0,0.0,0.0,0.0,0.0,0
-6.0,-26.0,-23.0,-15.0,6.0,-50.0,-40.0,-16.0,0.0,0.0,0.0,0.0,0.0,0.0,0.0,0.0,0
-32.0,-26.0,-2.0,-23.0,10.0,-58.0,-36.0,-2.0,0.0,0.0,0.0,0.0,0.0,0.0,0.0,0.0,0
-44.0,-25.0,4.0,-32.0,3.0,-50.0,-37.0,-3.0,0.0,0.0,0.0,0.0,0.0,0.0,0.0,0.0,0
-31.0,-23.0,5.0,-34.0,-6.0,-33.0,-36.0,-12.0,0.0,0.0,0.0,0.0,0.0,0.0,0.0,0.0,0
-31.0,-20.0,6.0,-25.0,-17.0,-23.0,-38.0,-10.0,0.0,0.0,0.0,0.0,0.0,0.0,0.0,0.0,0
-24.0,-17.0,-7.0,-18.0,-15.0,-13.0,-38.0,-16.0,0.0,0.0,0.0,0.0,0.0,0.0,0.0,0.0,0
-27.0,-26.0,-17.0,-15.0,-23.0,-14.0,-49.0,-23.0,0.0,0.0,0.0,0.0,0.0,0.0,0.0,0.0,0
-31.0,-30.0,-11.0,-5.0,-21.0,-7.0,-44.0,-25.0,0.0,0.0,0.0,0.0,0.0,0.0,0.0,0.0,0
-40.0,-24.0,-14.0,7.0,-15.0,1.0,-25.0,-25.0,0.0,0.0,0.0,0.0,0.0,0.0,0.0,0.0,0
-58.0,-24.0,-39.0,-8.0,-13.0,-2.0,-26.0,-29.0,0.0,0.0,0.0,0.0,0.0,0.0,0.0,0.0,0
-84.0,-36.0,-51.0,-19.0,-27.0,-12.0,-33.0,-32.0,0.0,0.0,0.0,0.0,0.0,0.0,0.0,0.0,0
-101.0,-34.0,-45.0,-19.0,-27.0,-3.0,-26.0,-32.0,0.0,0.0,0.0,0.0,0.0,0.0,0.0,0.0,0
-87.0,-18.0,-36.0,-14.0,-18.0,22.0,-17.0,-44.0,0.0,0.0,0.0,0.0,0.0,0.0,0.0,0.0,0
-63.0,-14.0,-23.0,-2.0,-13.0,28.0,-14.0,-49.0,0.0,0.0,0.0,0.0,0.0,0.0,0.0,0.0,0
-41.0,-16.0,-11.0,-12.0,-20.0,-5.0,-30.0,-51.0,0.0,0.0,0.0,0.0,0.0,0.0,0.0,0.0,0
-32.0,-21.0,-23.0,-18.0,-29.0,-35.0,-37.0,-49.0,0.0,0.0,0.0,0.0,0.0,0.0,0.0,0.0,0
-15.0,-24.0,-21.0,-22.0,-36.0,-49.0,-40.0,-53.0,0.0,0.0,0.0,0.0,0.0,0.0,0.0,0.0,0
-5.0,-36.0,-26.0,-25.0,-36.0,-60.0,-45.0,-59.0,0.0,0.0,0.0,0.0,0.0,0.0,0.0,0.0,0
-9.0,-40.0,-36.0,-42.0,-36.0,-63.0,-49.0,-52.0,0.0,0.0,0.0,0.0,0.0,0.0,0.0,0.0,0
11.0,-38.0,-37.0,-53.0,-39.0,-58.0,-52.0,-42.0,0.0,0.0,0.0,0.0,0.0,0.0,0.0,0.0,0
9.0,-50.0,-38.0,-54.0,-39.0,-53.0,-48.0,-34.0,0.0,0.0,0.0,0.0,0.0,0.0,0.0,0.0,0
-22.0,-59.0,-36.0,-55.0,-41.0,-38.0,-44.0,-23.0,0.0,0.0,0.0,0.0,0.0,0.0,0.0,0.0,0
-31.0,-58.0,-26.0,-59.0,-50.0,-35.0,-48.0,-21.0,0.0,0.0,0.0,0.0,0.0,0.0,0.0,0.0,0
-27.0,-45.0,-24.0,-66.0,-42.0,-36.0,-44.0,-26.0,0.0,0.0,0.0,0.0,0.0,0.0,0.0,0.0,0
-19.0,-43.0,-25.0,-74.0,-35.0,-15.0,-42.0,-29.0,0.0,0.0,0.0,0.0,0.0,0.0,0.0,0.0,0
-7.0,-50.0,-36.0,-73.0,-33.0,-10.0,-34.0,-33.0,0.0,0.0,0.0,0.0,0.0,0.0,0.0,0.0,0
-2.0,-51.0,-36.0,-65.0,-36.0,-9.0,-34.0,-35.0,0.0,0.0,0.0,0.0,0.0,0.0,0.0,0.0,0
-11.0,-42.0,-40.0,-60.0,-33.0,-7.0,-32.0,-38.0,0.0,0.0,0.0,0.0,0.0,0.0,0.0,0.0,0
-23.0,-50.0,-58.0,-69.0,-26.0,3.0,-24.0,-39.0,0.0,0.0,0.0,0.0,0.0,0.0,0.0,0.0,0
-34.0,-53.0,-67.0,-71.0,-26.0,22.0,-23.0,-37.0,0.0,0.0,0.0,0.0,0.0,0.0,0.0,0.0,0
-32.0,-51.0,-64.0,-59.0,-33.0,20.0,-17.0,-34.0,0.0,0.0,0.0,0.0,0.0,0.0,0.0,0.0,0
-57.0,-51.0,-63.0,-59.0,-44.0,8.0,-11.0,-36.0,0.0,0.0,0.0,0.0,0.0,0.0,0.0,0.0,0
-69.0,-48.0,-59.0,-56.0,-54.0,-24.0,-24.0,-38.0,0.0,0.0,0.0,0.0,0.0,0.0,0.0,0.0,0
-47.0,-42.0,-50.0,-47.0,-66.0,-40.0,-28.0,-48.0,0.0,0.0,0.0,0.0,0.0,0.0,0.0,0.0,0
-29.0,-41.0,-47.0,-39.0,-55.0,-48.0,-27.0,-52.0,0.0,0.0,0.0,0.0,0.0,0.0,0.0,0.0,0
-23.0,-36.0,-43.0,-32.0,-58.0,-55.0,-28.0,-56.0,0.0,0.0,0.0,0.0,0.0,0.0,0.0,0.0,0
-6.0,-35.0,-44.0,-35.0,-57.0,-54.0,-29.0,-60.0,0.0,0.0,0.0,0.0,0.0,0.0,0.0,0.0,0
-2.0,-49.0,-41.0,-39.0,-54.0,-47.0,-32.0,-53.0,0.0,0.0,0.0,0.0,0.0,0.0,0.0,0.0,0
-11.0,-51.0,-39.0,-46.0,-46.0,-48.0,-33.0,-52.0,0.0,0.0,0.0,0.0,0.0,0.0,0.0,0.0,0
-1.0,-48.0,-34.0,-46.0,-41.0,-47.0,-28.0,-50.0,0.0,0.0,0.0,0.0,0.0,0.0,0.0,0.0,0
-2.0,-49.0,-29.0,-48.0,-37.0,-46.0,-39.0,-43.0,0.0,0.0,0.0,0.0,0.0,0.0,0.0,0.0,0
-36.0,-51.0,-24.0,-48.0,-30.0,-46.0,-41.0,-27.0,0.0,0.0,0.0,0.0,0.0,0.0,0.0,0.0,0
-45.0,-43.0,-18.0,-45.0,-26.0,-47.0,-45.0,-27.0,0.0,0.0,0.0,0.0,0.0,0.0,0.0,0.0,0
-33.0,-38.0,-24.0,-53.0,-37.0,-46.0,-44.0,-28.0,0.0,0.0,0.0,0.0,0.0,0.0,0.0,0.0,0
-29.0,-24.0,-20.0,-48.0,-38.0,-48.0,-37.0,-29.0,0.0,0.0,0.0,0.0,0.0,0.0,0.0,0.0,0
-11.0,-15.0,-12.0,-47.0,-37.0,-39.0,-36.0,-38.0,0.0,0.0,0.0,0.0,0.0,0.0,0.0,0.0,0
-2.0,-21.0,-21.0,-42.0,-32.0,-42.0,-39.0,-34.0,0.0,0.0,0.0,0.0,0.0,0.0,0.0,0.0,0
-24.0,-22.0,-27.0,-27.0,-22.0,-35.0,-48.0,-35.0,0.0,0.0,0.0,0.0,0.0,0.0,0.0,0.0,0
-43.0,-20.0,-25.0,-16.0,-18.0,-30.0,-41.0,-34.0,0.0,0.0,0.0,0.0,0.0,0.0,0.0,0.0,0
-44.0,1.0,-18.0,6.0,-14.0,-31.0,-24.0,-28.0,0.0,0.0,0.0,0.0,0.0,0.0,0.0,0.0,0
-46.0,-8.0,-17.0,18.0,-13.0,-24.0,-25.0,-15.0,0.0,0.0,0.0,0.0,0.0,0.0,0.0,0.0,0
-66.0,-8.0,-34.0,21.0,-12.0,-27.0,-28.0,-8.0,0.0,0.0,0.0,0.0,0.0,0.0,0.0,0.0,0
-74.0,-14.0,-47.0,20.0,-5.0,-33.0,-27.0,-14.0,0.0,0.0,0.0,0.0,0.0,0.0,0.0,0.0,0
-55.0,-12.0,-42.0,18.0,-4.0,-37.0,-26.0,-20.0,0.0,0.0,0.0,0.0,0.0,0.0,0.0,0.0,0
-32.0,-15.0,-29.0,21.0,0.0,-34.0,-31.0,-16.0,0.0,0.0,0.0,0.0,0.0,0.0,0.0,0.0,0
-32.0,-15.0,-25.0,16.0,-1.0,-31.0,-30.0,-23.0,0.0,0.0,0.0,0.0,0.0,0.0,0.0,0.0,0
-19.0,-14.0,-19.0,5.0,0.0,-32.0,-31.0,-34.0,0.0,0.0,0.0,0.0,0.0,0.0,0.0,0.0,0
0.0,-29.0,-14.0,-2.0,3.0,-30.0,-35.0,-27.0,0.0,0.0,0.0,0.0,0.0,0.0,0.0,0.0,0
-20.0,-56.0,-26.0,-13.0,-10.0,-37.0,-31.0,-23.0,0.0,0.0,0.0,0.0,0.0,0.0,0.0,0.0,0
-25.0,-63.0,-39.0,-48.0,-38.0,-46.0,-38.0,-29.0,0.0,0.0,0.0,0.0,0.0,0.0,0.0,0.0,0
-22.0,-62.0,-42.0,-75.0,-56.0,-52.0,-37.0,-25.0,0.0,0.0,0.0,0.0,0.0,0.0,0.0,0.0,0
-48.0,-54.0,-36.0,-66.0,-52.0,-57.0,-42.0,-17.0,0.0,0.0,0.0,0.0,0.0,0.0,0.0,0.0,0
-56.0,-41.0,-36.0,-68.0,-50.0,-49.0,-40.0,-24.0,0.0,0.0,0.0,0.0,0.0,0.0,0.0,0.0,0
-45.0,-45.0,-54.0,-73.0,-48.0,-52.0,-46.0,-30.0,0.0,0.0,0.0,0.0,0.0,0.0,0.0,0.0,0
-39.0,-43.0,-64.0,-74.0,-38.0,-44.0,-50.0,-36.0,0.0,0.0,0.0,0.0,0.0,0.0,0.0,0.0,0
-19.0,-28.0,-61.0,-73.0,-35.0,-40.0,-45.0,-47.0,0.0,0.0,0.0,0.0,0.0,0.0,0.0,0.0,0
-8.0,-28.0,-58.0,-71.0,-41.0,-35.0,-46.0,-45.0,0.0,0.0,0.0,0.0,0.0,0.0,0.0,0.0,0
-12.0,-24.0,-55.0,-71.0,-41.0,-31.0,-45.0,-41.0,0.0,0.0,0.0,0.0,0.0,0.0,0.0,0.0,0
-20.0,-23.0,-48.0,-44.0,-37.0,-30.0,-36.0,-49.0,0.0,0.0,0.0,0.0,0.0,0.0,0.0,0.0,0
-21.0,-25.0,-31.0,-27.0,-37.0,-22.0,-36.0,-43.0,0.0,0.0,0.0,0.0,0.0,0.0,0.0,0.0,0
-28.0,-30.0,-14.0,-31.0,-44.0,-27.0,-37.0,-41.0,0.0,0.0,0.0,0.0,0.0,0.0,0.0,0.0,0
-56.0,-29.0,-9.0,-26.0,-47.0,-32.0,-39.0,-39.0,0.0,0.0,0.0,0.0,0.0,0.0,0.0,0.0,0
-62.0,-18.0,-10.0,-19.0,-53.0,-27.0,-36.0,-36.0,0.0,0.0,0.0,0.0,0.0,0.0,0.0,0.0,0
-47.0,-15.0,-11.0,-24.0,-58.0,-28.0,-34.0,-41.0,0.0,0.0,0.0,0.0,0.0,0.0,0.0,0.0,0
-35.0,-16.0,-23.0,-29.0,-42.0,-29.0,-31.0,-36.0,0.0,0.0,0.0,0.0,0.0,0.0,0.0,0.0,0
-36.0,-7.0,-35.0,-29.0,-39.0,-25.0,-23.0,-32.0,0.0,0.0,0.0,0.0,0.0,0.0,0.0,0.0,0
-12.0,-10.0,-42.0,-30.0,-30.0,-22.0,-28.0,-39.0,0.0,0.0,0.0,0.0,0.0,0.0,0.0,0.0,0
3.0,-28.0,-54.0,-42.0,-31.0,-33.0,-33.0,-24.0,0.0,0.0,0.0,0.0,0.0,0.0,0.0,0.0,0
-8.0,-38.0,-74.0,-57.0,-46.0,-34.0,-30.0,-19.0,0.0,0.0,0.0,0.0,0.0,0.0,0.0,0.0,0
-12.0,-46.0,-75.0,-76.0,-43.0,-33.0,-31.0,-17.0,0.0,0.0,0.0,0.0,0.0,0.0,0.0,0.0,0
2.0,-58.0,-77.0,-77.0,-37.0,-34.0,-31.0,-16.0,0.0,0.0,0.0,0.0,0.0,0.0,0.0,0.0,0
-28.0,-55.0,-65.0,-71.0,-31.0,-43.0,-28.0,-15.0,0.0,0.0,0.0,0.0,0.0,0.0,0.0,0.0,0
-33.0,-49.0,-67.0,-64.0,-18.0,-42.0,-33.0,-19.0,0.0,0.0,0.0,0.0,0.0,0.0,0.0,0.0,0
-21.0,-49.0,-62.0,-57.0,-15.0,-37.0,-34.0,-31.0,0.0,0.0,0.0,0.0,0.0,0.0,0.0,0.0,0
-13.0,-36.0,-54.0,-57.0,-8.0,-33.0,-27.0,-29.0,0.0,0.0,0.0,0.0,0.0,0.0,0.0,0.0,0
-3.0,-33.0,-47.0,-52.0,-9.0,-28.0,-29.0,-28.0,0.0,0.0,0.0,0.0,0.0,0.0,0.0,0.0,0
-3.0,-41.0,-45.0,-53.0,-15.0,-19.0,-33.0,-40.0,0.0,0.0,0.0,0.0,0.0,0.0,0.0,0.0,0
-17.0,-40.0,-48.0,-52.0,-17.0,-14.0,-29.0,-33.0,0.0,0.0,0.0,0.0,0.0,0.0,0.0,0.0,0
-26.0,-41.0,-46.0,-57.0,-23.0,-9.0,-30.0,-32.0,0.0,0.0,0.0,0.0,0.0,0.0,0.0,0.0,0
-36.0,-38.0,-41.0,-52.0,-25.0,-6.0,-40.0,-29.0,0.0,0.0,0.0,0.0,0.0,0.0,0.0,0.0,0
-46.0,-36.0,-47.0,-55.0,-40.0,-10.0,-42.0,-20.0,0.0,0.0,0.0,0.0,0.0,0.0,0.0,0.0,0
-60.0,-28.0,-49.0,-48.0,-46.0,-21.0,-41.0,-14.0,0.0,0.0,0.0,0.0,0.0,0.0,0.0,0.0,0
-63.0,-21.0,-36.0,-41.0,-45.0,-29.0,-38.0,-15.0,0.0,0.0,0.0,0.0,0.0,0.0,0.0,0.0,0
-49.0,-23.0,-30.0,-30.0,-39.0,-30.0,-46.0,-19.0,0.0,0.0,0.0,0.0,0.0,0.0,0.0,0.0,0
-39.0,-26.0,-27.0,-26.0,-41.0,-35.0,-46.0,-18.0,0.0,0.0,0.0,0.0,0.0,0.0,0.0,0.0,0
-39.0,-21.0,-25.0,-26.0,-40.0,-30.0,-47.0,-20.0,0.0,0.0,0.0,0.0,0.0,0.0,0.0,0.0,0
-16.0,-17.0,-21.0,-14.0,-35.0,-35.0,-44.0,-35.0,0.0,0.0,0.0,0.0,0.0,0.0,0.0,0.0,0
-4.0,-24.0,-22.0,-13.0,-37.0,-49.0,-42.0,-33.0,0.0,0.0,0.0,0.0,0.0,0.0,0.0,0.0,0
-8.0,-29.0,-21.0,-14.0,-35.0,-48.0,-40.0,-28.0,0.0,0.0,0.0,0.0,0.0,0.0,0.0,0.0,0
-3.0,-25.0,-18.0,-3.0,-23.0,-52.0,-38.0,-33.0,0.0,0.0,0.0,0.0,0.0,0.0,0.0,0.0,0
4.0,-33.0,-12.0,2.0,-21.0,-51.0,-40.0,-32.0,0.0,0.0,0.0,0.0,0.0,0.0,0.0,0.0,0
-25.0,-34.0,-7.0,9.0,-17.0,-43.0,-34.0,-29.0,0.0,0.0,0.0,0.0,0.0,0.0,0.0,0.0,0
-41.0,-36.0,3.0,17.0,-11.0,-47.0,-28.0,-31.0,0.0,0.0,0.0,0.0,0.0,0.0,0.0,0.0,0
-37.0,-27.0,11.0,20.0,-3.0,-42.0,-25.0,-34.0,0.0,0.0,0.0,0.0,0.0,0.0,0.0,0.0,0
-28.0,-23.0,11.0,23.0,-3.0,-31.0,-20.0,-40.0,0.0,0.0,0.0,0.0,0.0,0.0,0.0,0.0,0
-15.0,-22.0,7.0,27.0,0.0,-24.0,-18.0,-46.0,0.0,0.0,0.0,0.0,0.0,0.0,0.0,0.0,0
3.0,-26.0,3.0,23.0,1.0,-24.0,-19.0,-38.0,0.0,0.0,0.0,0.0,0.0,0.0,0.0,0.0,0
-2.0,-31.0,9.0,19.0,-2.0,-16.0,-22.0,-35.0,0.0,0.0,0.0,0.0,0.0,0.0,0.0,0.0,0
-15.0,-25.0,-6.0,28.0,-8.0,-19.0,-23.0,-34.0,0.0,0.0,0.0,0.0,0.0,0.0,0.0,0.0,0
-18.0,-21.0,-14.0,24.0,-17.0,-22.0,-19.0,-28.0,0.0,0.0,0.0,0.0,0.0,0.0,0.0,0.0,0
-36.0,-32.0,-18.0,3.0,-31.0,-28.0,-28.0,-22.0,0.0,0.0,0.0,0.0,0.0,0.0,0.0,0.0,0
-64.0,-41.0,-25.0,-10.0,-52.0,-43.0,-38.0,-23.0,0.0,0.0,0.0,0.0,0.0,0.0,0.0,0.0,0
-64.0,-46.0,-20.0,-4.0,-66.0,-45.0,-39.0,-27.0,0.0,0.0,0.0,0.0,0.0,0.0,0.0,0.0,0
-50.0,-43.0,-21.0,-9.0,-64.0,-48.0,-39.0,-31.0,0.0,0.0,0.0,0.0,0.0,0.0,0.0,0.0,0
-31.0,-48.0,-31.0,-15.0,-67.0,-43.0,-42.0,-38.0,0.0,0.0,0.0,0.0,0.0,0.0,0.0,0.0,0
-31.0,-49.0,-30.0,-26.0,-74.0,-43.0,-45.0,-43.0,0.0,0.0,0.0,0.0,0.0,0.0,0.0,0.0,0
-28.0,-49.0,-31.0,-25.0,-63.0,-44.0,-54.0,-41.0,0.0,0.0,0.0,0.0,0.0,0.0,0.0,0.0,0
-21.0,-55.0,-35.0,-35.0,-54.0,-44.0,-62.0,-44.0,0.0,0.0,0.0,0.0,0.0,0.0,0.0,0.0,0
-27.0,-53.0,-42.0,-49.0,-41.0,-40.0,-61.0,-52.0,0.0,0.0,0.0,0.0,0.0,0.0,0.0,0.0,0
-18.0,-51.0,-54.0,-52.0,-36.0,-39.0,-59.0,-59.0,0.0,0.0,0.0,0.0,0.0,0.0,0.0,0.0,0
-2.0,-53.0,-61.0,-63.0,-38.0,-45.0,-61.0,-47.0,0.0,0.0,0.0,0.0,0.0,0.0,0.0,0.0,0
-30.0,-55.0,-69.0,-64.0,-43.0,-51.0,-54.0,-37.0,0.0,0.0,0.0,0.0,0.0,0.0,0.0,0.0,0
-46.0,-58.0,-63.0,-56.0,-51.0,-37.0,-46.0,-38.0,0.0,0.0,0.0,0.0,0.0,0.0,0.0,0.0,0
-47.0,-49.0,-52.0,-47.0,-48.0,-41.0,-44.0,-40.0,0.0,0.0,0.0,0.0,0.0,0.0,0.0,0.0,0
-35.0,-40.0,-38.0,-34.0,-40.0,-46.0,-46.0,-41.0,0.0,0.0,0.0,0.0,0.0,0.0,0.0,0.0,0
-22.0,-39.0,-26.0,-22.0,-34.0,-37.0,-37.0,-51.0,0.0,0.0,0.0,0.0,0.0,0.0,0.0,0.0,0
-10.0,-46.0,-21.0,-12.0,-28.0,-26.0,-36.0,-42.0,0.0,0.0,0.0,0.0,0.0,0.0,0.0,0.0,0
-25.0,-43.0,-13.0,-6.0,-23.0,-23.0,-29.0,-34.0,0.0,0.0,0.0,0.0,0.0,0.0,0.0,0.0,0
-34.0,-34.0,-20.0,-7.0,-20.0,-16.0,-27.0,-30.0,0.0,0.0,0.0,0.0,0.0,0.0,0.0,0.0,0
-41.0,-29.0,-32.0,-13.0,-23.0,-14.0,-26.0,-27.0,0.0,0.0,0.0,0.0,0.0,0.0,0.0,0.0,0
-46.0,-37.0,-54.0,-23.0,-27.0,-16.0,-27.0,-28.0,0.0,0.0,0.0,0.0,0.0,0.0,0.0,0.0,0
-68.0,-35.0,-74.0,-34.0,-41.0,-15.0,-33.0,-39.0,0.0,0.0,0.0,0.0,0.0,0.0,0.0,0.0,0
-71.0,-37.0,-77.0,-46.0,-48.0,-26.0,-31.0,-33.0,0.0,0.0,0.0,0.0,0.0,0.0,0.0,0.0,0
-45.0,-29.0,-70.0,-52.0,-53.0,-25.0,-28.0,-34.0,0.0,0.0,0.0,0.0,0.0,0.0,0.0,0.0,0
-31.0,-31.0,-64.0,-55.0,-50.0,-30.0,-40.0,-32.0,0.0,0.0,0.0,0.0,0.0,0.0,0.0,0.0,0
-28.0,-26.0,-52.0,-48.0,-43.0,-27.0,-43.0,-43.0,0.0,0.0,0.0,0.0,0.0,0.0,0.0,0.0,0
-16.0,-32.0,-45.0,-46.0,-36.0,-29.0,-49.0,-57.0,0.0,0.0,0.0,0.0,0.0,0.0,0.0,0.0,0
3.0,-36.0,-50.0,-52.0,-42.0,-29.0,-49.0,-51.0,0.0,0.0,0.0,0.0,0.0,0.0,0.0,0.0,0
-5.0,-38.0,-46.0,-51.0,-40.0,-30.0,-39.0,-44.0,0.0,0.0,0.0,0.0,0.0,0.0,0.0,0.0,0
2.0,-33.0,-43.0,-40.0,-37.0,-24.0,-37.0,-43.0,0.0,0.0,0.0,0.0,0.0,0.0,0.0,0.0,0
7.0,-37.0,-49.0,-39.0,-37.0,-22.0,-39.0,-37.0,0.0,0.0,0.0,0.0,0.0,0.0,0.0,0.0,0
-19.0,-41.0,-58.0,-44.0,-39.0,-34.0,-35.0,-25.0,0.0,0.0,0.0,0.0,0.0,0.0,0.0,0.0,0
-34.0,-44.0,-64.0,-47.0,-40.0,-44.0,-38.0,-27.0,0.0,0.0,0.0,0.0,0.0,0.0,0.0,0.0,0
-33.0,-47.0,-60.0,-46.0,-40.0,-41.0,-38.0,-26.0,0.0,0.0,0.0,0.0,0.0,0.0,0.0,0.0,0
-28.0,-42.0,-50.0,-37.0,-43.0,-41.0,-32.0,-32.0,0.0,0.0,0.0,0.0,0.0,0.0,0.0,0.0,0
-1.0,-36.0,-38.0,-21.0,-37.0,-36.0,-34.0,-30.0,0.0,0.0,0.0,0.0,0.0,0.0,0.0,0.0,0
0.0,-36.0,-29.0,-18.0,-37.0,-30.0,-30.0,-21.0,0.0,0.0,0.0,0.0,0.0,0.0,0.0,0.0,0
-19.0,-30.0,-28.0,-14.0,-41.0,-29.0,-29.0,-16.0,0.0,0.0,0.0,0.0,0.0,0.0,0.0,0.0,0
-21.0,-27.0,-30.0,-23.0,-37.0,-35.0,-22.0,-14.0,0.0,0.0,0.0,0.0,0.0,0.0,0.0,0.0,0
-27.0,-28.0,-21.0,-30.0,-45.0,-29.0,-25.0,-16.0,0.0,0.0,0.0,0.0,0.0,0.0,0.0,0.0,0
-30.0,-31.0,-19.0,-38.0,-51.0,-23.0,-23.0,-4.0,0.0,0.0,0.0,0.0,0.0,0.0,0.0,0.0,0
-57.0,-38.0,-35.0,-44.0,-53.0,-27.0,-24.0,-4.0,0.0,0.0,0.0,0.0,0.0,0.0,0.0,0.0,0
-76.0,-34.0,-40.0,-45.0,-59.0,-38.0,-29.0,-14.0,0.0,0.0,0.0,0.0,0.0,0.0,0.0,0.0,0
-59.0,-28.0,-36.0,-32.0,-50.0,-32.0,-33.0,-25.0,0.0,0.0,0.0,0.0,0.0,0.0,0.0,0.0,0
-51.0,-37.0,-35.0,-33.0,-43.0,-30.0,-35.0,-33.0,0.0,0.0,0.0,0.0,0.0,0.0,0.0,0.0,0
-41.0,-33.0,-34.0,-40.0,-44.0,-35.0,-40.0,-28.0,0.0,0.0,0.0,0.0,0.0,0.0,0.0,0.0,0
-32.0,-39.0,-39.0,-37.0,-38.0,-40.0,-36.0,-32.0,0.0,0.0,0.0,0.0,0.0,0.0,0.0,0.0,0
-16.0,-39.0,-25.0,-17.0,-24.0,-46.0,-33.0,-30.0,0.0,0.0,0.0,0.0,0.0,0.0,0.0,0.0,0
-20.0,-35.0,-5.0,-10.0,-11.0,-39.0,-35.0,-26.0,0.0,0.0,0.0,0.0,0.0,0.0,0.0,0.0,0
-12.0,-29.0,1.0,-9.0,1.0,-32.0,-33.0,-31.0,0.0,0.0,0.0,0.0,0.0,0.0,0.0,0.0,0
-6.0,-43.0,9.0,-5.0,2.0,-36.0,-37.0,-26.0,0.0,0.0,0.0,0.0,0.0,0.0,0.0,0.0,0
-51.0,-52.0,17.0,-1.0,6.0,-42.0,-33.0,-18.0,0.0,0.0,0.0,0.0,0.0,0.0,0.0,0.0,0
-59.0,-49.0,19.0,8.0,2.0,-41.0,-27.0,-15.0,0.0,0.0,0.0,0.0,0.0,0.0,0.0,0.0,0
-56.0,-46.0,4.0,-11.0,-11.0,-38.0,-32.0,-24.0,0.0,0.0,0.0,0.0,0.0,0.0,0.0,0.0,0
-46.0,-44.0,-10.0,-24.0,-14.0,-41.0,-34.0,-41.0,0.0,0.0,0.0,0.0,0.0,0.0,0.0,0.0,0
-27.0,-46.0,-21.0,-30.0,-21.0,-45.0,-38.0,-48.0,0.0,0.0,0.0,0.0,0.0,0.0,0.0,0.0,0
-12.0,-41.0,-26.0,-37.0,-34.0,-46.0,-33.0,-41.0,0.0,0.0,0.0,0.0,0.0,0.0,0.0,0.0,0
-26.0,-40.0,-34.0,-41.0,-32.0,-41.0,-36.0,-41.0,0.0,0.0,0.0,0.0,0.0,0.0,0.0,0.0,0
-40.0,-42.0,-38.0,-40.0,-36.0,-33.0,-38.0,-39.0,0.0,0.0,0.0,0.0,0.0,0.0,0.0,0.0,0
-42.0,-37.0,-29.0,-36.0,-43.0,-27.0,-38.0,-36.0,0.0,0.0,0.0,0.0,0.0,0.0,0.0,0.0,0
-43.0,-27.0,-8.0,-22.0,-44.0,-31.0,-35.0,-29.0,0.0,0.0,0.0,0.0,0.0,0.0,0.0,0.0,0
-73.0,-27.0,-17.0,-19.0,-45.0,-28.0,-33.0,-30.0,0.0,0.0,0.0,0.0,0.0,0.0,0.0,0.0,0
-72.0,-25.0,-18.0,-26.0,-44.0,-29.0,-34.0,-34.0,0.0,0.0,0.0,0.0,0.0,0.0,0.0,0.0,0
-60.0,-25.0,-4.0,-29.0,-45.0,-33.0,-36.0,-41.0,0.0,0.0,0.0,0.0,0.0,0.0,0.0,0.0,0
-38.0,-16.0,4.0,-34.0,-47.0,-32.0,-42.0,-32.0,0.0,0.0,0.0,0.0,0.0,0.0,0.0,0.0,0
-45.0,-21.0,2.0,-29.0,-41.0,-33.0,-39.0,-31.0,0.0,0.0,0.0,0.0,0.0,0.0,0.0,0.0,0
-53.0,-24.0,-4.0,-25.0,-27.0,-41.0,-41.0,-39.0,0.0,0.0,0.0,0.0,0.0,0.0,0.0,0.0,0
-49.0,-33.0,5.0,-23.0,-29.0,-40.0,-44.0,-36.0,0.0,0.0,0.0,0.0,0.0,0.0,0.0,0.0,0
-47.0,-48.0,-5.0,-16.0,-26.0,-43.0,-41.0,-35.0,0.0,0.0,0.0,0.0,0.0,0.0,0.0,0.0,0
-42.0,-55.0,-28.0,-24.0,-29.0,-43.0,-40.0,-39.0,0.0,0.0,0.0,0.0,0.0,0.0,0.0,0.0,0
-44.0,-77.0,-49.0,-43.0,-36.0,-46.0,-46.0,-35.0,0.0,0.0,0.0,0.0,0.0,0.0,0.0,0.0,0
-72.0,-87.0,-61.0,-57.0,-52.0,-55.0,-42.0,-29.0,0.0,0.0,0.0,0.0,0.0,0.0,0.0,0.0,0
-75.0,-72.0,-74.0,-66.0,-54.0,-61.0,-47.0,-36.0,0.0,0.0,0.0,0.0,0.0,0.0,0.0,0.0,0
-68.0,-65.0,-91.0,-77.0,-62.0,-62.0,-49.0,-39.0,0.0,0.0,0.0,0.0,0.0,0.0,0.0,0.0,0
-60.0,-47.0,-86.0,-71.0,-64.0,-59.0,-48.0,-42.0,0.0,0.0,0.0,0.0,0.0,0.0,0.0,0.0,0
-37.0,-27.0,-73.0,-76.0,-65.0,-46.0,-48.0,-52.0,0.0,0.0,0.0,0.0,0.0,0.0,0.0,0.0,0
-16.0,-10.0,-72.0,-79.0,-72.0,-44.0,-40.0,-46.0,0.0,0.0,0.0,0.0,0.0,0.0,0.0,0.0,0
-27.0,-3.0,-66.0,-63.0,-59.0,-44.0,-32.0,-39.0,0.0,0.0,0.0,0.0,0.0,0.0,0.0,0.0,0
-34.0,5.0,-41.0,-37.0,-53.0,-41.0,-25.0,-40.0,0.0,0.0,0.0,0.0,0.0,0.0,0.0,0.0,0
-35.0,11.0,-12.0,-5.0,-36.0,-30.0,-27.0,-37.0,0.0,0.0,0.0,0.0,0.0,0.0,0.0,0.0,0
-36.0,3.0,13.0,31.0,-12.0,-18.0,-28.0,-28.0,0.0,0.0,0.0,0.0,0.0,0.0,0.0,0.0,0
-60.0,2.0,10.0,44.0,-1.0,-12.0,-39.0,-28.0,0.0,0.0,0.0,0.0,0.0,0.0,0.0,0.0,0
-66.0,6.0,11.0,55.0,4.0,-13.0,-39.0,-34.0,0.0,0.0,0.0,0.0,0.0,0.0,0.0,0.0,0
-51.0,22.0,27.0,66.0,11.0,-12.0,-31.0,-32.0,0.0,0.0,0.0,0.0,0.0,0.0,0.0,0.0,0
-30.0,17.0,21.0,56.0,5.0,-12.0,-33.0,-36.0,0.0,0.0,0.0,0.0,0.0,0.0,0.0,0.0,0
-30.0,-3.0,-11.0,26.0,-13.0,-19.0,-39.0,-38.0,0.0,0.0,0.0,0.0,0.0,0.0,0.0,0.0,0
-6.0,-9.0,-29.0,5.0,-25.0,-29.0,-45.0,-44.0,0.0,0.0,0.0,0.0,0.0,0.0,0.0,0.0,0
19.0,-6.0,-30.0,-3.0,-30.0,-34.0,-46.0,-46.0,0.0,0.0,0.0,0.0,0.0,0.0,0.0,0.0,0
8.0,-18.0,-35.0,-19.0,-37.0,-40.0,-43.0,-42.0,0.0,0.0,0.0,0.0,0.0,0.0,0.0,0.0,0
4.0,-20.0,-39.0,-32.0,-37.0,-33.0,-41.0,-36.0,0.0,0.0,0.0,0.0,0.0,0.0,0.0,0.0,0
9.0,-31.0,-41.0,-34.0,-42.0,-36.0,-33.0,-31.0,0.0,0.0,0.0,0.0,0.0,0.0,0.0,0.0,0
-25.0,-36.0,-49.0,-44.0,-41.0,-38.0,-35.0,-24.0,0.0,0.0,0.0,0.0,0.0,0.0,0.0,0.0,0
-32.0,-32.0,-48.0,-54.0,-38.0,-44.0,-38.0,-26.0,0.0,0.0,0.0,0.0,0.0,0.0,0.0,0.0,0
-29.0,-25.0,-53.0,-61.0,-44.0,-32.0,-35.0,-31.0,0.0,0.0,0.0,0.0,0.0,0.0,0.0,0.0,0
-25.0,-27.0,-59.0,-60.0,-52.0,-27.0,-35.0,-36.0,0.0,0.0,0.0,0.0,0.0,0.0,0.0,0.0,0
-8.0,-32.0,-63.0,-55.0,-46.0,-21.0,-36.0,-44.0,0.0,0.0,0.0,0.0,0.0,0.0,0.0,0.0,0
11.0,-36.0,-64.0,-60.0,-46.0,-25.0,-35.0,-42.0,0.0,0.0,0.0,0.0,0.0,0.0,0.0,0.0,0
12.0,-43.0,-67.0,-73.0,-51.0,-29.0,-29.0,-43.0,0.0,0.0,0.0,0.0,0.0,0.0,0.0,0.0,0
-16.0,-47.0,-77.0,-86.0,-53.0,-35.0,-34.0,-38.0,0.0,0.0,0.0,0.0,0.0,0.0,0.0,0.0,0
-35.0,-48.0,-82.0,-98.0,-69.0,-44.0,-37.0,-37.0,0.0,0.0,0.0,0.0,0.0,0.0,0.0,0.0,0
-51.0,-57.0,-68.0,-87.0,-62.0,-44.0,-44.0,-33.0,0.0,0.0,0.0,0.0,0.0,0.0,0.0,0.0,0
-82.0,-59.0,-70.0,-88.0,-56.0,-37.0,-42.0,-28.0,0.0,0.0,0.0,0.0,0.0,0.0,0.0,0.0,0
-98.0,-52.0,-74.0,-82.0,-58.0,-38.0,-46.0,-29.0,0.0,0.0,0.0,0.0,0.0,0.0,0.0,0.0,0
-57.0,-40.0,-71.0,-67.0,-39.0,-37.0,-41.0,-31.0,0.0,0.0,0.0,0.0,0.0,0.0,0.0,0.0,0
-22.0,-35.0,-68.0,-64.0,-33.0,-41.0,-37.0,-30.0,0.0,0.0,0.0,0.0,0.0,0.0,0.0,0.0,0
-18.0,-21.0,-66.0,-76.0,-38.0,-38.0,-38.0,-30.0,0.0,0.0,0.0,0.0,0.0,0.0,0.0,0.0,0
-18.0,-24.0,-69.0,-75.0,-34.0,-45.0,-44.0,-38.0,0.0,0.0,0.0,0.0,0.0,0.0,0.0,0.0,0
-7.0,-40.0,-60.0,-57.0,-16.0,-50.0,-44.0,-48.0,0.0,0.0,0.0,0.0,0.0,0.0,0.0,0.0,0
-7.0,-47.0,-30.0,-22.0,-5.0,-54.0,-46.0,-43.0,0.0,0.0,0.0,0.0,0.0,0.0,0.0,0.0,0
-2.0,-42.0,15.0,6.0,-4.0,-35.0,-42.0,-44.0,0.0,0.0,0.0,0.0,0.0,0.0,0.0,0.0,0
4.0,-28.0,56.0,36.0,3.0,-24.0,-45.0,-48.0,0.0,0.0,0.0,0.0,0.0,0.0,0.0,0.0,0
-23.0,-13.0,80.0,53.0,13.0,-20.0,-44.0,-41.0,0.0,0.0,0.0,0.0,0.0,0.0,0.0,0.0,0
-30.0,-8.0,92.0,57.0,11.0,-28.0,-32.0,-28.0,0.0,0.0,0.0,0.0,0.0,0.0,0.0,0.0,0
-22.0,-7.0,92.0,59.0,6.0,-34.0,-28.0,-27.0,0.0,0.0,0.0,0.0,0.0,0.0,0.0,0.0,0
-23.0,-4.0,92.0,62.0,10.0,-26.0,-24.0,-23.0,0.0,0.0,0.0,0.0,0.0,0.0,0.0,0.0,0
-10.0,-2.0,69.0,66.0,12.0,-20.0,-22.0,-26.0,0.0,0.0,0.0,0.0,0.0,0.0,0.0,0.0,0
-11.0,-11.0,38.0,59.0,21.0,-18.0,-16.0,-22.0,0.0,0.0,0.0,0.0,0.0,0.0,0.0,0.0,0
-19.0,-13.0,19.0,48.0,23.0,-14.0,-12.0,-15.0,0.0,0.0,0.0,0.0,0.0,0.0,0.0,0.0,0
-19.0,-9.0,-7.0,19.0,15.0,-17.0,-14.0,-16.0,0.0,0.0,0.0,0.0,0.0,0.0,0.0,0.0,0
-12.0,-11.0,-41.0,-14.0,8.0,-26.0,-20.0,-36.0,0.0,0.0,0.0,0.0,0.0,0.0,0.0,0.0,0
-19.0,-27.0,-77.0,-49.0,-14.0,-38.0,-28.0,-32.0,0.0,0.0,0.0,0.0,0.0,0.0,0.0,0.0,0
-46.0,-40.0,-98.0,-75.0,-32.0,-45.0,-34.0,-21.0,0.0,0.0,0.0,0.0,0.0,0.0,0.0,0.0,0
-53.0,-34.0,-105.0,-88.0,-38.0,-53.0,-36.0,-23.0,0.0,0.0,0.0,0.0,0.0,0.0,0.0,0.0,0
-40.0,-37.0,-104.0,-91.0,-46.0,-53.0,-35.0,-24.0,0.0,0.0,0.0,0.0,0.0,0.0,0.0,0.0,0
-36.0,-45.0,-95.0,-98.0,-49.0,-49.0,-37.0,-31.0,0.0,0.0,0.0,0.0,0.0,0.0,0.0,0.0,0
-51.0,-49.0,-85.0,-96.0,-59.0,-47.0,-39.0,-26.0,0.0,0.0,0.0,0.0,0.0,0.0,0.0,0.0,0
-34.0,-46.0,-78.0,-89.0,-58.0,-42.0,-37.0,-31.0,0.0,0.0,0.0,0.0,0.0,0.0,0.0,0.0,0
-18.0,-63.0,-60.0,-100.0,-62.0,-43.0,-36.0,-39.0,0.0,0.0,0.0,0.0,0.0,0.0,0.0,0.0,0
-22.0,-63.0,-30.0,-84.0,-68.0,-45.0,-39.0,-37.0,0.0,0.0,0.0,0.0,0.0,0.0,0.0,0.0,0
-17.0,-54.0,-12.0,-70.0,-71.0,-42.0,-40.0,-43.0,0.0,0.0,0.0,0.0,0.0,0.0,0.0,0.0,0
-13.0,-65.0,-15.0,-75.0,-72.0,-48.0,-36.0,-37.0,0.0,0.0,0.0,0.0,0.0,0.0,0.0,0.0,0
-45.0,-67.0,-38.0,-87.0,-76.0,-52.0,-36.0,-29.0,0.0,0.0,0.0,0.0,0.0,0.0,0.0,0.0,0
-61.0,-75.0,-55.0,-90.0,-79.0,-49.0,-38.0,-30.0,0.0,0.0,0.0,0.0,0.0,0.0,0.0,0.0,0
-67.0,-77.0,-64.0,-93.0,-79.0,-47.0,-45.0,-23.0,0.0,0.0,0.0,0.0,0.0,0.0,0.0,0.0,0
-58.0,-74.0,-69.0,-81.0,-72.0,-46.0,-43.0,-27.0,0.0,0.0,0.0,0.0,0.0,0.0,0.0,0.0,0
-29.0,-64.0,-60.0,-67.0,-57.0,-36.0,-41.0,-45.0,0.0,0.0,0.0,0.0,0.0,0.0,0.0,0.0,0
-7.0,-63.0,-55.0,-65.0,-48.0,-38.0,-42.0,-43.0,0.0,0.0,0.0,0.0,0.0,0.0,0.0,0.0,0
-28.0,-53.0,-58.0,-67.0,-46.0,-41.0,-35.0,-33.0,0.0,0.0,0.0,0.0,0.0,0.0,0.0,0.0,0
-52.0,-48.0,-58.0,-54.0,-40.0,-44.0,-35.0,-38.0,0.0,0.0,0.0,0.0,0.0,0.0,0.0,0.0,0
-48.0,-40.0,-47.0,-43.0,-37.0,-43.0,-40.0,-32.0,0.0,0.0,0.0,0.0,0.0,0.0,0.0,0.0,0
-44.0,-36.0,-36.0,-38.0,-30.0,-41.0,-36.0,-27.0,0.0,0.0,0.0,0.0,0.0,0.0,0.0,0.0,0
-65.0,-35.0,-37.0,-34.0,-15.0,-35.0,-36.0,-24.0,0.0,0.0,0.0,0.0,0.0,0.0,0.0,0.0,0
-70.0,-26.0,-35.0,-15.0,-11.0,-33.0,-28.0,-28.0,0.0,0.0,0.0,0.0,0.0,0.0,0.0,0.0,0
-63.0,-19.0,-29.0,-2.0,-7.0,-29.0,-32.0,-37.0,0.0,0.0,0.0,0.0,0.0,0.0,0.0,0.0,0
-49.0,-21.0,-23.0,7.0,1.0,-26.0,-33.0,-26.0,0.0,0.0,0.0,0.0,0.0,0.0,0.0,0.0,0
-39.0,-10.0,-10.0,15.0,6.0,-19.0,-23.0,-25.0,0.0,0.0,0.0,0.0,0.0,0.0,0.0,0.0,0
-25.0,5.0,-5.0,22.0,16.0,-9.0,-20.0,-33.0,0.0,0.0,0.0,0.0,0.0,0.0,0.0,0.0,0
-4.0,6.0,6.0,38.0,26.0,-10.0,-21.0,-40.0,0.0,0.0,0.0,0.0,0.0,0.0,0.0,0.0,0
-6.0,6.0,4.0,52.0,29.0,-6.0,-19.0,-29.0,0.0,0.0,0.0,0.0,0.0,0.0,0.0,0.0,0
-12.0,-4.0,-2.0,50.0,26.0,-9.0,-30.0,-28.0,0.0,0.0,0.0,0.0,0.0,0.0,0.0,0.0,0
-8.0,-28.0,-15.0,35.0,5.0,-3.0,-34.0,-31.0,0.0,0.0,0.0,0.0,0.0,0.0,0.0,0.0,0
-38.0,-45.0,-16.0,29.0,-6.0,-8.0,-35.0,-27.0,0.0,0.0,0.0,0.0,0.0,0.0,0.0,0.0,0
-51.0,-60.0,-18.0,24.0,-20.0,-15.0,-36.0,-21.0,0.0,0.0,0.0,0.0,0.0,0.0,0.0,0.0,0
-50.0,-61.0,-16.0,10.0,-28.0,-8.0,-40.0,-23.0,0.0,0.0,0.0,0.0,0.0,0.0,0.0,0.0,0
-27.0,-40.0,-8.0,13.0,-28.0,-4.0,-36.0,-29.0,0.0,0.0,0.0,0.0,0.0,0.0,0.0,0.0,0
-1.0,-21.0,11.0,10.0,-27.0,-10.0,-38.0,-37.0,0.0,0.0,0.0,0.0,0.0,0.0,0.0,0.0,0
-5.0,-31.0,6.0,-5.0,-33.0,-28.0,-41.0,-26.0,0.0,0.0,0.0,0.0,0.0,0.0,0.0,0.0,0
-33.0,-55.0,-11.0,-19.0,-38.0,-40.0,-37.0,-22.0,0.0,0.0,0.0,0.0,0.0,0.0,0.0,0.0,0
-44.0,-63.0,-34.0,-42.0,-44.0,-55.0,-33.0,-30.0,0.0,0.0,0.0,0.0,0.0,0.0,0.0,0.0,0
-39.0,-46.0,-31.0,-51.0,-59.0,-56.0,-32.0,-30.0,0.0,0.0,0.0,0.0,0.0,0.0,0.0,0.0,0
-35.0,-47.0,-39.0,-60.0,-60.0,-59.0,-33.0,-34.0,0.0,0.0,0.0,0.0,0.0,0.0,0.0,0.0,0
-62.0,-46.0,-56.0,-75.0,-64.0,-64.0,-37.0,-26.0,0.0,0.0,0.0,0.0,0.0,0.0,0.0,0.0,0
-64.0,-37.0,-66.0,-81.0,-62.0,-61.0,-33.0,-31.0,0.0,0.0,0.0,0.0,0.0,0.0,0.0,0.0,0
-30.0,-18.0,-69.0,-72.0,-49.0,-53.0,-27.0,-32.0,0.0,0.0,0.0,0.0,0.0,0.0,0.0,0.0,0
-2.0,0.0,-57.0,-65.0,-40.0,-46.0,-22.0,-30.0,0.0,0.0,0.0,0.0,0.0,0.0,0.0,0.0,0
-24.0,1.0,-61.0,-63.0,-37.0,-45.0,-19.0,-32.0,0.0,0.0,0.0,0.0,0.0,0.0,0.0,0.0,0
-43.0,-19.0,-82.0,-68.0,-50.0,-48.0,-31.0,-47.0,0.0,0.0,0.0,0.0,0.0,0.0,0.0,0.0,0
-22.0,-40.0,-76.0,-55.0,-42.0,-47.0,-43.0,-62.0,0.0,0.0,0.0,0.0,0.0,0.0,0.0,0.0,0
11.0,-42.0,-55.0,-40.0,-31.0,-40.0,-44.0,-54.0,0.0,0.0,0.0,0.0,0.0,0.0,0.0,0.0,0
19.0,-41.0,-49.0,-58.0,-45.0,-34.0,-46.0,-45.0,0.0,0.0,0.0,0.0,0.0,0.0,0.0,0.0,0
4.0,-50.0,-56.0,-78.0,-58.0,-34.0,-44.0,-36.0,0.0,0.0,0.0,0.0,0.0,0.0,0.0,0.0,0
-34.0,-68.0,-46.0,-86.0,-62.0,-24.0,-42.0,-32.0,0.0,0.0,0.0,0.0,0.0,0.0,0.0,0.0,0
-53.0,-73.0,-44.0,-102.0,-71.0,-34.0,-51.0,-27.0,0.0,0.0,0.0,0.0,0.0,0.0,0.0,0.0,0
-52.0,-71.0,-54.0,-108.0,-85.0,-45.0,-47.0,-35.0,0.0,0.0,0.0,0.0,0.0,0.0,0.0,0.0,0
-50.0,-73.0,-65.0,-99.0,-77.0,-36.0,-45.0,-48.0,0.0,0.0,0.0,0.0,0.0,0.0,0.0,0.0,0
-33.0,-53.0,-64.0,-82.0,-65.0,-38.0,-40.0,-50.0,0.0,0.0,0.0,0.0,0.0,0.0,0.0,0.0,0
-10.0,-39.0,-57.0,-70.0,-54.0,-45.0,-42.0,-42.0,0.0,0.0,0.0,0.0,0.0,0.0,0.0,0.0,0
-7.0,-25.0,-42.0,-41.0,-36.0,-44.0,-36.0,-45.0,0.0,0.0,0.0,0.0,0.0,0.0,0.0,0.0,0
-15.0,-16.0,-38.0,-17.0,-28.0,-44.0,-38.0,-41.0,0.0,0.0,0.0,0.0,0.0,0.0,0.0,0.0,0
-26.0,-9.0,-22.0,-3.0,-17.0,-35.0,-40.0,-43.0,0.0,0.0,0.0,0.0,0.0,0.0,0.0,0.0,0
-34.0,-11.0,-13.0,13.0,-18.0,-29.0,-36.0,-44.0,0.0,0.0,0.0,0.0,0.0,0.0,0.0,0.0,0
-59.0,-7.0,-7.0,32.0,-26.0,-35.0,-31.0,-30.0,0.0,0.0,0.0,0.0,0.0,0.0,0.0,0.0,0
-72.0,4.0,8.0,45.0,-24.0,-36.0,-30.0,-37.0,0.0,0.0,0.0,0.0,0.0,0.0,0.0,0.0,0
-68.0,21.0,12.0,45.0,-16.0,-34.0,-22.0,-43.0,0.0,0.0,0.0,0.0,0.0,0.0,0.0,0.0,0
-42.0,9.0,19.0,56.0,-5.0,-24.0,-23.0,-44.0,0.0,0.0,0.0,0.0,0.0,0.0,0.0,0.0,0
-32.0,-1.0,26.0,69.0,6.0,-21.0,-23.0,-36.0,0.0,0.0,0.0,0.0,0.0,0.0,0.0,0.0,0
-30.0,-10.0,31.0,74.0,14.0,-16.0,-28.0,-35.0,0.0,0.0,0.0,0.0,0.0,0.0,0.0,0.0,0
-17.0,-24.0,24.0,54.0,16.0,-16.0,-33.0,-42.0,0.0,0.0,0.0,0.0,0.0,0.0,0.0,0.0,0
-27.0,-37.0,10.0,23.0,13.0,-22.0,-37.0,-42.0,0.0,0.0,0.0,0.0,0.0,0.0,0.0,0.0,0
-31.0,-40.0,-8.0,-14.0,0.0,-26.0,-40.0,-44.0,0.0,0.0,0.0,0.0,0.0,0.0,0.0,0.0,0
-36.0,-60.0,-32.0,-43.0,-14.0,-32.0,-43.0,-33.0,0.0,0.0,0.0,0.0,0.0,0.0,0.0,0.0,3
-64.0,-76.0,-42.0,-48.0,-24.0,-31.0,-40.0,-34.0,0.0,0.0,0.0,0.0,0.0,0.0,0.0,0.0,3
-66.0,-81.0,-43.0,-61.0,-35.0,-33.0,-39.0,-39.0,0.0,0.0,0.0,0.0,0.0,0.0,0.0,0.0,3
-45.0,-78.0,-51.0,-69.0,-55.0,-42.0,-44.0,-38.0,0.0,0.0,0.0,0.0,0.0,0.0,0.0,0.0,3
-42.0,-91.0,-77.0,-78.0,-55.0,-47.0,-51.0,-41.0,0.0,0.0,0.0,0.0,0.0,0.0,0.0,0.0,3
-46.0,-87.0,-80.0,-82.0,-53.0,-46.0,-52.0,-54.0,0.0,0.0,0.0,0.0,0.0,0.0,0.0,0.0,3
-28.0,-71.0,-74.0,-75.0,-49.0,-55.0,-52.0,-53.0,0.0,0.0,0.0,0.0,0.0,0.0,0.0,0.0,3
-2.0,-60.0,-59.0,-60.0,-40.0,-50.0,-40.0,-39.0,0.0,0.0,0.0,0.0,0.0,0.0,0.0,0.0,3
0.0,-63.0,-67.0,-52.0,-37.0,-54.0,-41.0,-30.0,0.0,0.0,0.0,0.0,0.0,0.0,0.0,0.0,3
-17.0,-75.0,-75.0,-56.0,-33.0,-50.0,-41.0,-23.0,0.0,0.0,0.0,0.0,0.0,0.0,0.0,0.0,3
-15.0,-67.0,-62.0,-46.0,-34.0,-52.0,-40.0,-18.0,0.0,0.0,0.0,0.0,0.0,0.0,0.0,0.0,3
-37.0,-48.0,-49.0,-38.0,-35.0,-44.0,-43.0,-13.0,0.0,0.0,0.0,0.0,0.0,0.0,0.0,0.0,3
-46.0,-30.0,-41.0,-46.0,-42.0,-43.0,-42.0,-22.0,0.0,0.0,0.0,0.0,0.0,0.0,0.0,0.0,3
-31.0,-21.0,-48.0,-53.0,-46.0,-42.0,-44.0,-30.0,0.0,0.0,0.0,0.0,0.0,0.0,0.0,0.0,3
-8.0,-16.0,-59.0,-70.0,-50.0,-37.0,-53.0,-30.0,0.0,0.0,0.0,0.0,0.0,0.0,0.0,0.0,3
-12.0,-19.0,-62.0,-71.0,-55.0,-32.0,-49.0,-27.0,0.0,0.0,0.0,0.0,0.0,0.0,0.0,0.0,3
-15.0,-20.0,-67.0,-62.0,-54.0,-23.0,-48.0,-28.0,0.0,0.0,0.0,0.0,0.0,0.0,0.0,0.0,3
0.0,-25.0,-58.0,-51.0,-48.0,-21.0,-44.0,-38.0,0.0,0.0,0.0,0.0,0.0,0.0,0.0,0.0,3
9.0,-24.0,-20.0,-21.0,-30.0,-13.0,-46.0,-38.0,0.0,0.0,0.0,0.0,0.0,0.0,0.0,0.0,3
10.0,-23.0,14.0,25.0,-12.0,-5.0,-31.0,-34.0,0.0,0.0,0.0,0.0,0.0,0.0,0.0,0.0,3
-9.0,-49.0,20.0,45.0,-6.0,2.0,-34.0,-27.0,0.0,0.0,0.0,0.0,0.0,0.0,0.0,0.0,3
-61.0,-64.0,27.0,66.0,15.0,9.0,-38.0,-20.0,0.0,0.0,0.0,0.0,0.0,0.0,0.0,0.0,3
-54.0,-57.0,46.0,97.0,46.0,9.0,-32.0,-23.0,0.0,0.0,0.0,0.0,0.0,0.0,0.0,0.0,3
-38.0,-46.0,57.0,89.0,38.0,5.0,-37.0,-23.0,0.0,0.0,0.0,0.0,0.0,0.0,0.0,0.0,3
-32.0,-43.0,45.0,64.0,27.0,5.0,-38.0,-27.0,0.0,0.0,0.0,0.0,0.0,0.0,0.0,0.0,3
-18.0,-32.0,24.0,24.0,15.0,-5.0,-43.0,-30.0,0.0,0.0,0.0,0.0,0.0,0.0,0.0,0.0,3
-18.0,-49.0,-3.0,-15.0,-10.0,-18.0,-37.0,-34.0,0.0,0.0,0.0,0.0,0.0,0.0,0.0,0.0,3
-45.0,-56.0,-28.0,-34.0,-27.0,-30.0,-29.0,-30.0,0.0,0.0,0.0,0.0,0.0,0.0,0.0,0.0,3
-51.0,-47.0,-53.0,-49.0,-47.0,-34.0,-25.0,-32.0,0.0,0.0,0.0,0.0,0.0,0.0,0.0,0.0,3
-38.0,-32.0,-63.0,-78.0,-71.0,-48.0,-25.0,-34.0,0.0,0.0,0.0,0.0,0.0,0.0,0.0,0.0,3
-40.0,-31.0,-81.0,-102.0,-80.0,-65.0,-28.0,-33.0,0.0,0.0,0.0,0.0,0.0,0.0,0.0,0.0,3
-64.0,-21.0,-88.0,-110.0,-82.0,-65.0,-28.0,-28.0,0.0,0.0,0.0,0.0,0.0,0.0,0.0,0.0,3
-70.0,0.0,-82.0,-103.0,-80.0,-60.0,-25.0,-25.0,0.0,0.0,0.0,0.0,0.0,0.0,0.0,0.0,3
-52.0,0.0,-102.0,-111.0,-77.0,-58.0,-26.0,-34.0,0.0,0.0,0.0,0.0,0.0,0.0,0.0,0.0,3
-30.0,-7.0,-114.0,-125.0,-85.0,-59.0,-29.0,-42.0,0.0,0.0,0.0,0.0,0.0,0.0,0.0,0.0,3
-17.0,-7.0,-104.0,-131.0,-74.0,-58.0,-31.0,-43.0,0.0,0.0,0.0,0.0,0.0,0.0,0.0,0.0,3
0.0,-8.0,-102.0,-123.0,-65.0,-56.0,-29.0,-46.0,0.0,0.0,0.0,0.0,0.0,0.0,0.0,0.0,3
3.0,-19.0,-96.0,-116.0,-75.0,-59.0,-42.0,-50.0,0.0,0.0,0.0,0.0,0.0,0.0,0.0,0.0,3
-5.0,-14.0,-79.0,-114.0,-77.0,-65.0,-49.0,-50.0,0.0,0.0,0.0,0.0,0.0,0.0,0.0,0.0,3
-7.0,-18.0,-62.0,-105.0,-69.0,-61.0,-44.0,-51.0,0.0,0.0,0.0,0.0,0.0,0.0,0.0,0.0,3
-20.0,-35.0,-62.0,-89.0,-61.0,-56.0,-46.0,-45.0,0.0,0.0,0.0,0.0,0.0,0.0,0.0,0.0,3
-58.0,-47.0,-67.0,-72.0,-50.0,-45.0,-44.0,-43.0,0.0,0.0,0.0,0.0,0.0,0.0,0.0,0.0,3
-56.0,-47.0,-66.0,-36.0,-25.0,-40.0,-40.0,-43.0,0.0,0.0,0.0,0.0,0.0,0.0,0.0,0.0,3
-36.0,-40.0,-52.0,-6.0,-6.0,-28.0,-31.0,-47.0,0.0,0.0,0.0,0.0,0.0,0.0,0.0,0.0,3
-19.0,-26.0,-33.0,28.0,11.0,-31.0,-29.0,-51.0,0.0,0.0,0.0,0.0,0.0,0.0,0.0,0.0,3
3.0,-10.0,-17.0,51.0,23.0,-29.0,-30.0,-49.0,0.0,0.0,0.0,0.0,0.0,0.0,0.0,0.0,3
13.0,-6.0,4.0,55.0,27.0,-35.0,-22.0,-42.0,0.0,0.0,0.0,0.0,0.0,0.0,0.0,0.0,3
-21.0,-17.0,21.0,59.0,31.0,-34.0,-18.0,-31.0,0.0,0.0,0.0,0.0,0.0,0.0,0.0,0.0,3
-61.0,-42.0,7.0,64.0,31.0,-30.0,-19.0,-36.0,0.0,0.0,0.0,0.0,0.0,0.0,0.0,0.0,3
-84.0,-46.0,0.0,53.0,17.0,-34.0,-16.0,-38.0,0.0,0.0,0.0,0.0,0.0,0.0,0.0,0.0,3
-73.0,-46.0,-16.0,14.0,-1.0,-45.0,-14.0,-25.0,0.0,0.0,0.0,0.0,0.0,0.0,0.0,0.0,3
-89.0,-42.0,-24.0,-7.0,-22.0,-47.0,-28.0,-23.0,0.0,0.0,0.0,0.0,0.0,0.0,0.0,0.0,3
-78.0,-28.0,-11.0,0.0,-14.0,-39.0,-44.0,-30.0,0.0,0.0,0.0,0.0,0.0,0.0,0.0,0.0,3
-38.0,-7.0,-15.0,0.0,-4.0,-23.0,-40.0,-36.0,0.0,0.0,0.0,0.0,0.0,0.0,0.0,0.0,3
-28.0,-11.0,-25.0,-15.0,-4.0,-5.0,-29.0,-33.0,0.0,0.0,0.0,0.0,0.0,0.0,0.0,0.0,3
-60.0,-42.0,-53.0,-21.0,-11.0,11.0,-18.0,-18.0,0.0,0.0,0.0,0.0,0.0,0.0,0.0,0.0,3
-46.0,-33.0,-47.0,-18.0,-12.0,19.0,-18.0,-9.0,0.0,0.0,0.0,0.0,0.0,0.0,0.0,0.0,3
4.0,-36.0,-31.0,-18.0,-3.0,9.0,-29.0,-27.0,0.0,0.0,0.0,0.0,0.0,0.0,0.0,0.0,3
-1.0,-73.0,-51.0,-26.0,-7.0,-17.0,-33.0,-27.0,0.0,0.0,0.0,0.0,0.0,0.0,0.0,0.0,3
-34.0,-77.0,-42.0,-16.0,-3.0,-23.0,-23.0,6.0,0.0,0.0,0.0,0.0,0.0,0.0,0.0,0.0,3
-26.0,-67.0,-15.0,-7.0,18.0,-28.0,-20.0,18.0,0.0,0.0,0.0,0.0,0.0,0.0,0.0,0.0,3
-68.0,-54.0,0.0,-2.0,19.0,-34.0,-28.0,3.0,0.0,0.0,0.0,0.0,0.0,0.0,0.0,0.0,3
-72.0,-36.0,3.0,-3.0,8.0,-50.0,-43.0,-28.0,0.0,0.0,0.0,0.0,0.0,0.0,0.0,0.0,3
-65.0,-9.0,2.0,-5.0,-1.0,-50.0,-44.0,-41.0,0.0,0.0,0.0,0.0,0.0,0.0,0.0,0.0,3
-58.0,1.0,2.0,4.0,-3.0,-47.0,-25.0,-27.0,0.0,0.0,0.0,0.0,0.0,0.0,0.0,0.0,3
-15.0,11.0,-25.0,3.0,-17.0,-49.0,-6.0,-6.0,0.0,0.0,0.0,0.0,0.0,0.0,0.0,0.0,3
29.0,29.0,-47.0,-11.0,-21.0,-59.0,-4.0,-3.0,0.0,0.0,0.0,0.0,0.0,0.0,0.0,0.0,3
36.0,43.0,-65.0,-25.0,-37.0,-64.0,3.0,5.0,0.0,0.0,0.0,0.0,0.0,0.0,0.0,0.0,3
27.0,35.0,-64.0,-25.0,-39.0,-57.0,-4.0,2.0,0.0,0.0,0.0,0.0,0.0,0.0,0.0,0.0,3
33.0,47.0,-61.0,-32.0,-49.0,-55.0,-19.0,-19.0,0.0,0.0,0.0,0.0,0.0,0.0,0.0,0.0,3
21.0,29.0,-69.0,-65.0,-70.0,-58.0,-21.0,-13.0,0.0,0.0,0.0,0.0,0.0,0.0,0.0,0.0,3
-53.0,-54.0,-49.0,-74.0,-76.0,-52.0,-24.0,-9.0,0.0,0.0,0.0,0.0,0.0,0.0,0.0,0.0,3
-96.0,-83.0,25.0,-36.0,-66.0,-50.0,-32.0,-24.0,0.0,0.0,0.0,0.0,0.0,0.0,0.0,0.0,3
-90.0,-79.0,70.0,-8.0,-55.0,-39.0,-32.0,-34.0,0.0,0.0,0.0,0.0,0.0,0.0,0.0,0.0,3
-110.0,-93.0,44.0,-15.0,-58.0,-39.0,-42.0,-40.0,0.0,0.0,0.0,0.0,0.0,0.0,0.0,0.0,3
-120.0,-88.0,-8.0,-49.0,-73.0,-43.0,-42.0,-37.0,0.0,0.0,0.0,0.0,0.0,0.0,0.0,0.0,3
-62.0,-63.0,-22.0,-58.0,-67.0,-32.0,-46.0,-47.0,0.0,0.0,0.0,0.0,0.0,0.0,0.0,0.0,3
-8.0,-32.0,-25.0,-48.0,-57.0,-27.0,-52.0,-54.0,0.0,0.0,0.0,0.0,0.0,0.0,0.0,0.0,3
-9.0,-34.0,-57.0,-63.0,-65.0,-25.0,-51.0,-49.0,0.0,0.0,0.0,0.0,0.0,0.0,0.0,0.0,3
-16.0,-25.0,-68.0,-67.0,-58.0,-19.0,-47.0,-24.0,0.0,0.0,0.0,0.0,0.0,0.0,0.0,0.0,3
-19.0,-30.0,-64.0,-79.0,-60.0,-21.0,-16.0,10.0,0.0,0.0,0.0,0.0,0.0,0.0,0.0,0.0,3
-71.0,-62.0,-85.0,-89.0,-63.0,-32.0,-2.0,-15.0,0.0,0.0,0.0,0.0,0.0,0.0,0.0,0.0,3
-103.0,-124.0,-110.0,-77.0,-66.0,-43.0,-35.0,-87.0,0.0,0.0,0.0,0.0,0.0,0.0,0.0,0.0,3
-86.0,-158.0,-120.0,-87.0,-77.0,-59.0,-77.0,-186.0,0.0,0.0,0.0,0.0,0.0,0.0,0.0,0.0,3
-60.0,-129.0,-116.0,-90.0,-75.0,-66.0,-80.0,-192.0,0.0,0.0,0.0,0.0,0.0,0.0,0.0,0.0,3
-26.0,-125.0,-122.0,-76.0,-53.0,-54.0,-46.0,-110.0,0.0,0.0,0.0,0.0,0.0,0.0,0.0,0.0,3
0.0,-116.0,-124.0,-54.0,-29.0,-30.0,-11.0,-67.0,0.0,0.0,0.0,0.0,0.0,0.0,0.0,0.0,3
-49.0,-72.0,-116.0,-41.0,-13.0,-24.0,-33.0,-61.0,0.0,0.0,0.0,0.0,0.0,0.0,0.0,0.0,3
-52.0,-10.0,-108.0,-27.0,-3.0,-18.0,-91.0,-42.0,0.0,0.0,0.0,0.0,0.0,0.0,0.0,0.0,3
-24.0,10.0,-80.0,6.0,14.0,-14.0,-117.0,-15.0,0.0,0.0,0.0,0.0,0.0,0.0,0.0,0.0,3
-25.0,-29.0,-71.0,13.0,15.0,-26.0,-68.0,74.0,0.0,0.0,0.0,0.0,0.0,0.0,0.0,0.0,3
-67.0,-77.0,-76.0,0.0,0.0,-44.0,-79.0,63.0,0.0,0.0,0.0,0.0,0.0,0.0,0.0,0.0,3
-110.0,-82.0,-48.0,1.0,-19.0,-39.0,-48.0,41.0,0.0,0.0,0.0,0.0,0.0,0.0,0.0,0.0,3
-72.0,-55.0,-18.0,5.0,-20.0,-25.0,46.0,87.0,0.0,0.0,0.0,0.0,0.0,0.0,0.0,0.0,3
-20.0,3.0,34.0,31.0,-3.0,-4.0,104.0,169.0,0.0,0.0,0.0,0.0,0.0,0.0,0.0,0.0,3
21.0,94.0,76.0,41.0,3.0,4.0,128.0,181.0,0.0,0.0,0.0,0.0,0.0,0.0,0.0,0.0,3
69.0,174.0,67.0,25.0,-7.0,14.0,166.0,229.0,0.0,0.0,0.0,0.0,0.0,0.0,0.0,0.0,3
127.0,250.0,69.0,13.0,-9.0,16.0,127.0,97.0,0.0,0.0,0.0,0.0,0.0,0.0,0.0,0.0,3
140.0,301.0,102.0,32.0,0.0,-3.0,-33.0,-192.0,0.0,0.0,0.0,0.0,0.0,0.0,0.0,0.0,3
115.0,281.0,81.0,12.0,-17.0,-32.0,-168.0,-268.0,0.0,0.0,0.0,0.0,0.0,0.0,0.0,0.0,3
100.0,221.0,3.0,-45.0,-46.0,-52.0,-230.0,-323.0,0.0,0.0,0.0,0.0,0.0,0.0,0.0,0.0,3
126.0,200.0,-33.0,-66.0,-50.0,-37.0,-148.0,-232.0,0.0,0.0,0.0,0.0,0.0,0.0,0.0,0.0,3
81.0,70.0,-65.0,-68.0,-37.0,-37.0,-80.0,-71.0,0.0,0.0,0.0,0.0,0.0,0.0,0.0,0.0,3
-161.0,-442.0,-173.0,-121.0,-60.0,-47.0,-36.0,189.0,0.0,0.0,0.0,0.0,0.0,0.0,0.0,0.0,3
-412.0,-794.0,-257.0,-160.0,-89.0,-75.0,-75.0,147.0,0.0,0.0,0.0,0.0,0.0,0.0,0.0,0.0,3
-328.0,-576.0,-234.0,-137.0,-84.0,-93.0,-134.0,-148.0,0.0,0.0,0.0,0.0,0.0,0.0,0.0,0.0,3
-122.0,-342.0,-139.0,-92.0,-62.0,-91.0,-48.0,-120.0,0.0,0.0,0.0,0.0,0.0,0.0,0.0,0.0,3
-60.0,-258.0,-41.0,-58.0,-58.0,-109.0,-183.0,-171.0,0.0,0.0,0.0,0.0,0.0,0.0,0.0,0.0,3
-65.0,-85.0,22.0,-26.0,-23.0,-98.0,-295.0,-281.0,0.0,0.0,0.0,0.0,0.0,0.0,0.0,0.0,3
-86.0,94.0,92.0,50.0,46.0,-34.0,-165.0,-91.0,0.0,0.0,0.0,0.0,0.0,0.0,0.0,0.0,3
-40.0,251.0,125.0,79.0,61.0,-4.0,-92.0,70.0,0.0,0.0,0.0,0.0,0.0,0.0,0.0,0.0,3
115.0,320.0,107.0,72.0,61.0,7.0,-120.0,44.0,0.0,0.0,0.0,0.0,0.0,0.0,0.0,0.0,3
262.0,299.0,110.0,84.0,66.0,31.0,-93.0,-93.0,0.0,0.0,0.0,0.0,0.0,0.0,0.0,0.0,3
194.0,163.0,102.0,84.0,63.0,53.0,-88.0,-342.0,0.0,0.0,0.0,0.0,0.0,0.0,0.0,0.0,3
-78.0,-120.0,-42.0,-7.0,5.0,21.0,-46.0,-490.0,0.0,0.0,0.0,0.0,0.0,0.0,0.0,0.0,3
-62.0,-212.0,-157.0,-91.0,-59.0,-14.0,-21.0,-530.0,0.0,0.0,0.0,0.0,0.0,0.0,0.0,0.0,3
241.0,63.0,-124.0,-87.0,-50.0,6.0,-42.0,-335.0,0.0,0.0,0.0,0.0,0.0,0.0,0.0,0.0,3
259.0,290.0,8.0,-20.0,-3.0,53.0,37.0,44.0,0.0,0.0,0.0,0.0,0.0,0.0,0.0,0.0,3
19.0,287.0,133.0,6.0,-5.0,63.0,241.0,475.0,0.0,0.0,0.0,0.0,0.0,0.0,0.0,0.0,3
-59.0,216.0,154.0,-28.0,-40.0,38.0,419.0,904.0,0.0,0.0,0.0,0.0,0.0,0.0,0.0,0.0,3
-261.0,18.0,174.0,-1.0,-34.0,43.0,642.0,806.0,0.0,0.0,0.0,0.0,0.0,0.0,0.0,0.0,3
-890.0,-382.0,76.0,-13.0,-56.0,20.0,668.0,698.0,0.0,0.0,0.0,0.0,0.0,0.0,0.0,0.0,3
-941.0,-524.0,-61.0,-72.0,-98.0,-59.0,474.0,481.0,0.0,0.0,0.0,0.0,0.0,0.0,0.0,0.0,3
-369.0,-330.0,-181.0,-138.0,-139.0,-133.0,49.0,-71.0,0.0,0.0,0.0,0.0,0.0,0.0,0.0,0.0,3
-101.0,-316.0,-212.0,-157.0,-124.0,-147.0,-141.0,-197.0,0.0,0.0,0.0,0.0,0.0,0.0,0.0,0.0,3
-219.0,-327.0,-211.0,-143.0,-104.0,-144.0,-99.0,5.0,0.0,0.0,0.0,0.0,0.0,0.0,0.0,0.0,3
11.0,-67.0,-251.0,-182.0,-139.0,-134.0,36.0,118.0,0.0,0.0,0.0,0.0,0.0,0.0,0.0,0.0,3
18.0,206.0,-197.0,-205.0,-152.0,-107.0,1.0,-95.0,0.0,0.0,0.0,0.0,0.0,0.0,0.0,0.0,3
-87.0,327.0,-2.0,-140.0,-129.0,-109.0,-127.0,-433.0,0.0,0.0,0.0,0.0,0.0,0.0,0.0,0.0,3
110.0,23.0,23.0,-118.0,-149.0,-169.0,-279.0,-496.0,0.0,0.0,0.0,0.0,0.0,0.0,0.0,0.0,3
618.0,-80.0,18.0,-52.0,-93.0,-135.0,-410.0,-13.0,0.0,0.0,0.0,0.0,0.0,0.0,0.0,0.0,3
577.0,-487.0,-203.0,-85.0,-50.0,-24.0,-374.0,92.0,0.0,0.0,0.0,0.0,0.0,0.0,0.0,0.0,3
-102.0,-1155.0,-627.0,-201.0,-70.0,55.0,-353.0,-53.0,0.0,0.0,0.0,0.0,0.0,0.0,0.0,0.0,3
-202.0,-1115.0,-770.0,-195.0,-70.0,71.0,-356.0,-420.0,0.0,0.0,0.0,0.0,0.0,0.0,0.0,0.0,3
76.0,-551.0,-410.0,2.0,38.0,110.0,-214.0,-751.0,0.0,0.0,0.0,0.0,0.0,0.0,0.0,0.0,3
-4.0,-28.0,-41.0,136.0,112.0,85.0,-330.0,-704.0,0.0,0.0,0.0,0.0,0.0,0.0,0.0,0.0,3
-530.0,39.0,104.0,51.0,26.0,-41.0,-353.0,-380.0,0.0,0.0,0.0,0.0,0.0,0.0,0.0,0.0,3
-307.0,624.0,394.0,94.0,17.0,-126.0,-412.0,-183.0,0.0,0.0,0.0,0.0,0.0,0.0,0.0,0.0,3
397.0,780.0,520.0,196.0,79.0,-87.0,-334.0,279.0,0.0,0.0,0.0,0.0,0.0,0.0,0.0,0.0,3
438.0,851.0,454.0,139.0,43.0,-72.0,-228.0,318.0,0.0,0.0,0.0,0.0,0.0,0.0,0.0,0.0,3
-152.0,469.0,397.0,98.0,-23.0,-120.0,-301.0,-172.0,0.0,0.0,0.0,0.0,0.0,0.0,0.0,0.0,3
-130.0,324.0,337.0,89.0,-10.0,-56.0,-150.0,-391.0,0.0,0.0,0.0,0.0,0.0,0.0,0.0,0.0,3
13.0,157.0,-15.0,-25.0,-8.0,5.0,191.0,-502.0,0.0,0.0,0.0,0.0,0.0,0.0,0.0,0.0,3
166.0,-98.0,-344.0,-121.0,-46.0,-59.0,361.0,-221.0,0.0,0.0,0.0,0.0,0.0,0.0,0.0,0.0,3
581.0,-62.0,-371.0,-152.0,-99.0,-150.0,234.0,-61.0,0.0,0.0,0.0,0.0,0.0,0.0,0.0,0.0,3
61.0,-181.0,-284.0,-220.0,-164.0,-118.0,58.0,-121.0,0.0,0.0,0.0,0.0,0.0,0.0,0.0,0.0,3
-638.0,-887.0,-366.0,-287.0,-226.0,-178.0,-178.0,17.0,0.0,0.0,0.0,0.0,0.0,0.0,0.0,0.0,3
-182.0,-943.0,-489.0,-315.0,-254.0,-207.0,-306.0,168.0,0.0,0.0,0.0,0.0,0.0,0.0,0.0,0.0,3
-218.0,-342.0,-330.0,-240.0,-187.0,-131.0,-322.0,263.0,0.0,0.0,0.0,0.0,0.0,0.0,0.0,0.0,3
-1187.0,-314.0,-37.0,-71.0,-42.0,-15.0,-138.0,103.0,0.0,0.0,0.0,0.0,0.0,0.0,0.0,0.0,3
-1153.0,5.0,381.0,194.0,118.0,100.0,218.0,168.0,0.0,0.0,0.0,0.0,0.0,0.0,0.0,0.0,3
-1037.0,84.0,561.0,353.0,185.0,148.0,537.0,319.0,0.0,0.0,0.0,0.0,0.0,0.0,0.0,0.0,3
-586.0,-127.0,394.0,350.0,198.0,163.0,498.0,413.0,0.0,0.0,0.0,0.0,0.0,0.0,0.0,0.0,3
584.0,767.0,398.0,360.0,254.0,208.0,400.0,355.0,0.0,0.0,0.0,0.0,0.0,0.0,0.0,0.0,3
1888.0,1631.0,614.0,392.0,262.0,243.0,578.0,330.0,0.0,0.0,0.0,0.0,0.0,0.0,0.0,0.0,3
2498.0,1739.0,646.0,315.0,179.0,149.0,586.0,411.0,0.0,0.0,0.0,0.0,0.0,0.0,0.0,0.0,3
2222.0,1126.0,397.0,147.0,73.0,23.0,333.0,441.0,0.0,0.0,0.0,0.0,0.0,0.0,0.0,0.0,3
1861.0,996.0,100.0,-69.0,-46.0,-27.0,19.0,104.0,0.0,0.0,0.0,0.0,0.0,0.0,0.0,0.0,3
572.0,682.0,-27.0,-160.0,-97.0,-65.0,-440.0,-282.0,0.0,0.0,0.0,0.0,0.0,0.0,0.0,0.0,3
-956.0,-617.0,-161.0,-132.0,-67.0,-61.0,-622.0,-607.0,0.0,0.0,0.0,0.0,0.0,0.0,0.0,0.0,3
-1390.0,-1837.0,-438.0,-202.0,-123.0,-111.0,-488.0,-850.0,0.0,0.0,0.0,0.0,0.0,0.0,0.0,0.0,3
-1902.0,-1972.0,-610.0,-241.0,-114.0,52.0,52.0,-759.0,0.0,0.0,0.0,0.0,0.0,0.0,0.0,0.0,3
-2016.0,-1257.0,-523.0,-226.0,-87.0,145.0,472.0,-115.0,0.0,0.0,0.0,0.0,0.0,0.0,0.0,0.0,3
-1178.0,-27.0,-346.0,-268.0,-162.0,77.0,433.0,550.0,0.0,0.0,0.0,0.0,0.0,0.0,0.0,0.0,3
90.0,696.0,-265.0,-319.0,-275.0,-125.0,299.0,600.0,0.0,0.0,0.0,0.0,0.0,0.0,0.0,0.0,3
1032.0,690.0,-104.0,-254.0,-298.0,-242.0,110.0,259.0,0.0,0.0,0.0,0.0,0.0,0.0,0.0,0.0,3
1620.0,364.0,40.0,-104.0,-193.0,-286.0,-355.0,-309.0,0.0,0.0,0.0,0.0,0.0,0.0,0.0,0.0,3
1339.0,-600.0,-23.0,69.0,63.0,-110.0,-542.0,-285.0,0.0,0.0,0.0,0.0,0.0,0.0,0.0,0.0,3
147.0,-1081.0,-57.0,193.0,235.0,123.0,-114.0,119.0,0.0,0.0,0.0,0.0,0.0,0.0,0.0,0.0,3
-1198.0,-604.0,2.0,152.0,163.0,82.0,-118.0,116.0,0.0,0.0,0.0,0.0,0.0,0.0,0.0,0.0,3
-1512.0,8.0,130.0,7.0,-10.0,-80.0,-310.0,146.0,0.0,0.0,0.0,0.0,0.0,0.0,0.0,0.0,3
-403.0,882.0,213.0,-166.0,-176.0,-174.0,-376.0,-31.0,0.0,0.0,0.0,0.0,0.0,0.0,0.0,0.0,3
190.0,641.0,242.0,-88.0,-110.0,-139.0,-158.0,-166.0,0.0,0.0,0.0,0.0,0.0,0.0,0.0,0.0,3
129.0,-129.0,268.0,110.0,45.0,-27.0,190.0,-138.0,0.0,0.0,0.0,0.0,0.0,0.0,0.0,0.0,3
-114.0,-101.0,133.0,111.0,53.0,26.0,200.0,6.0,0.0,0.0,0.0,0.0,0.0,0.0,0.0,0.0,3
69.0,161.0,-245.0,-123.0,-113.0,-54.0,-72.0,-113.0,0.0,0.0,0.0,0.0,0.0,0.0,0.0,0.0,3
-554.0,-1403.0,-864.0,-366.0,-246.0,-156.0,-283.0,35.0,0.0,0.0,0.0,0.0,0.0,0.0,0.0,0.0,3
-1322.0,-2737.0,-1287.0,-481.0,-298.0,-201.0,-284.0,242.0,0.0,0.0,0.0,0.0,0.0,0.0,0.0,0.0,3
-496.0,-1698.0,-1049.0,-401.0,-252.0,-135.0,-251.0,-152.0,0.0,0.0,0.0,0.0,0.0,0.0,0.0,0.0,3
403.0,-70.0,-491.0,-263.0,-199.0,-114.0,-209.0,-662.0,0.0,0.0,0.0,0.0,0.0,0.0,0.0,0.0,3
-176.0,514.0,-52.0,-148.0,-160.0,-114.0,17.0,-622.0,0.0,0.0,0.0,0.0,0.0,0.0,0.0,0.0,3
-421.0,722.0,246.0,1.0,-45.0,-3.0,194.0,-228.0,0.0,0.0,0.0,0.0,0.0,0.0,0.0,0.0,3
800.0,1833.0,614.0,249.0,145.0,132.0,304.0,110.0,0.0,0.0,0.0,0.0,0.0,0.0,0.0,0.0,3
1461.0,2195.0,823.0,417.0,260.0,179.0,365.0,256.0,0.0,0.0,0.0,0.0,0.0,0.0,0.0,0.0,3
811.0,1602.0,927.0,452.0,275.0,156.0,217.0,181.0,0.0,0.0,0.0,0.0,0.0,0.0,0.0,0.0,3
-196.0,537.0,720.0,341.0,181.0,4.0,-181.0,-58.0,0.0,0.0,0.0,0.0,0.0,0.0,0.0,0.0,3
-109.0,-279.0,489.0,200.0,82.0,-121.0,-560.0,-216.0,0.0,0.0,0.0,0.0,0.0,0.0,0.0,0.0,3
306.0,-91.0,245.0,-20.0,-67.0,-206.0,-703.0,-259.0,0.0,0.0,0.0,0.0,0.0,0.0,0.0,0.0,3
194.0,-770.0,-382.0,-241.0,-185.0,-296.0,-548.0,-242.0,0.0,0.0,0.0,0.0,0.0,0.0,0.0,0.0,3
-510.0,-2281.0,-1096.0,-364.0,-217.0,-260.0,-37.0,-139.0,0.0,0.0,0.0,0.0,0.0,0.0,0.0,0.0,3
-281.0,-1411.0,-956.0,-305.0,-167.0,-22.0,407.0,16.0,0.0,0.0,0.0,0.0,0.0,0.0,0.0,0.0,3
188.0,107.0,-366.0,-203.0,-148.0,101.0,502.0,80.0,0.0,0.0,0.0,0.0,0.0,0.0,0.0,0.0,3
59.0,415.0,116.0,-5.0,-43.0,125.0,406.0,203.0,0.0,0.0,0.0,0.0,0.0,0.0,0.0,0.0,3
-247.0,151.0,180.0,74.0,44.0,258.0,420.0,331.0,0.0,0.0,0.0,0.0,0.0,0.0,0.0,0.0,3
-536.0,273.0,170.0,65.0,70.0,338.0,539.0,396.0,0.0,0.0,0.0,0.0,0.0,0.0,0.0,0.0,3
10.0,1002.0,366.0,138.0,122.0,220.0,239.0,292.0,0.0,0.0,0.0,0.0,0.0,0.0,0.0,0.0,3
750.0,1621.0,546.0,213.0,138.0,71.0,-14.0,177.0,0.0,0.0,0.0,0.0,0.0,0.0,0.0,0.0,3
940.0,1529.0,596.0,285.0,175.0,44.0,-74.0,135.0,0.0,0.0,0.0,0.0,0.0,0.0,0.0,0.0,3
815.0,381.0,305.0,240.0,135.0,-47.0,-204.0,2.0,0.0,0.0,0.0,0.0,0.0,0.0,0.0,0.0,3
291.0,-961.0,-63.0,174.0,82.0,-162.0,-252.0,-51.0,0.0,0.0,0.0,0.0,0.0,0.0,0.0,0.0,3
-983.0,-1810.0,-302.0,88.0,63.0,-85.0,-173.0,-39.0,0.0,0.0,0.0,0.0,0.0,0.0,0.0,0.0,3
-2172.0,-2021.0,-485.0,-141.0,-50.0,-129.0,-211.0,-120.0,0.0,0.0,0.0,0.0,0.0,0.0,0.0,0.0,3
-2250.0,-1176.0,-473.0,-260.0,-113.0,-173.0,-271.0,-207.0,0.0,0.0,0.0,0.0,0.0,0.0,0.0,0.0,3
-1549.0,365.0,-170.0,-261.0,-140.0,-152.0,-336.0,-353.0,0.0,0.0,0.0,0.0,0.0,0.0,0.0,0.0,3
-333.0,689.0,-34.0,-278.0,-224.0,-202.0,-426.0,-543.0,0.0,0.0,0.0,0.0,0.0,0.0,0.0,0.0,3
909.0,403.0,-40.0,-212.0,-205.0,-223.0,-385.0,-541.0,0.0,0.0,0.0,0.0,0.0,0.0,0.0,0.0,3
1201.0,23.0,-179.0,-194.0,-167.0,-201.0,-213.0,-362.0,0.0,0.0,0.0,0.0,0.0,0.0,0.0,0.0,3
955.0,47.0,-76.0,-76.0,-44.0,-131.0,39.0,211.0,0.0,0.0,0.0,0.0,0.0,0.0,0.0,0.0,3
650.0,162.0,174.0,125.0,92.0,-166.0,6.0,467.0,0.0,0.0,0.0,0.0,0.0,0.0,0.0,0.0,3
388.0,-202.0,90.0,180.0,124.0,-209.0,-142.0,111.0,0.0,0.0,0.0,0.0,0.0,0.0,0.0,0.0,3
445.0,173.0,24.0,98.0,82.0,-178.0,24.0,-85.0,0.0,0.0,0.0,0.0,0.0,0.0,0.0,0.0,3
575.0,482.0,40.0,26.0,24.0,-82.0,322.0,279.0,0.0,0.0,0.0,0.0,0.0,0.0,0.0,0.0,3
327.0,262.0,-170.0,-238.0,-165.0,17.0,459.0,350.0,0.0,0.0,0.0,0.0,0.0,0.0,0.0,0.0,3
-420.0,-277.0,-344.0,-459.0,-309.0,-4.0,49.0,93.0,0.0,0.0,0.0,0.0,0.0,0.0,0.0,0.0,3
-556.0,172.0,-115.0,-413.0,-273.0,-23.0,-508.0,-497.0,0.0,0.0,0.0,0.0,0.0,0.0,0.0,0.0,3
-237.0,870.0,11.0,-364.0,-232.0,-11.0,-542.0,-453.0,0.0,0.0,0.0,0.0,0.0,0.0,0.0,0.0,3
-75.0,558.0,-44.0,-296.0,-157.0,-15.0,-394.0,-154.0,0.0,0.0,0.0,0.0,0.0,0.0,0.0,0.0,3
-100.0,127.0,-157.0,-257.0,-130.0,-18.0,-209.0,-2.0,0.0,0.0,0.0,0.0,0.0,0.0,0.0,0.0,3
-423.0,-1075.0,-502.0,-269.0,-133.0,24.0,-14.0,-33.0,0.0,0.0,0.0,0.0,0.0,0.0,0.0,0.0,3
-718.0,-2024.0,-673.0,-166.0,-51.0,85.0,182.0,-57.0,0.0,0.0,0.0,0.0,0.0,0.0,0.0,0.0,3
-810.0,-1963.0,-487.0,38.0,60.0,119.0,265.0,38.0,0.0,0.0,0.0,0.0,0.0,0.0,0.0,0.0,3
-694.0,-884.0,-52.0,288.0,190.0,200.0,249.0,-64.0,0.0,0.0,0.0,0.0,0.0,0.0,0.0,0.0,3
-183.0,-395.0,121.0,280.0,134.0,107.0,88.0,-83.0,0.0,0.0,0.0,0.0,0.0,0.0,0.0,0.0,3
9.0,-339.0,266.0,210.0,50.0,3.0,6.0,-141.0,0.0,0.0,0.0,0.0,0.0,0.0,0.0,0.0,3
243.0,392.0,638.0,352.0,109.0,-20.0,-38.0,-86.0,0.0,0.0,0.0,0.0,0.0,0.0,0.0,0.0,3
427.0,1240.0,782.0,408.0,142.0,7.0,13.0,32.0,0.0,0.0,0.0,0.0,0.0,0.0,0.0,0.0,3
293.0,1515.0,682.0,295.0,75.0,12.0,-9.0,68.0,0.0,0.0,0.0,0.0,0.0,0.0,0.0,0.0,3
-259.0,1179.0,555.0,188.0,1.0,-29.0,-120.0,-50.0,0.0,0.0,0.0,0.0,0.0,0.0,0.0,0.0,3
-461.0,681.0,280.0,145.0,-19.0,-34.0,-152.0,-122.0,0.0,0.0,0.0,0.0,0.0,0.0,0.0,0.0,3
9.0,260.0,22.0,132.0,-9.0,-16.0,-38.0,-10.0,0.0,0.0,0.0,0.0,0.0,0.0,0.0,0.0,3
661.0,455.0,-43.0,75.0,-43.0,-6.0,182.0,82.0,0.0,0.0,0.0,0.0,0.0,0.0,0.0,0.0,3
1203.0,236.0,-176.0,15.0,-62.0,-39.0,425.0,182.0,0.0,0.0,0.0,0.0,0.0,0.0,0.0,0.0,3
1115.0,-678.0,-517.0,-79.0,-51.0,-87.0,328.0,244.0,0.0,0.0,0.0,0.0,0.0,0.0,0.0,0.0,3
675.0,-784.0,-441.0,14.0,74.0,-25.0,282.0,453.0,0.0,0.0,0.0,0.0,0.0,0.0,0.0,0.0,3
1.0,-741.0,-228.0,31.0,91.0,-16.0,196.0,307.0,0.0,0.0,0.0,0.0,0.0,0.0,0.0,0.0,3
-1167.0,-833.0,-229.0,-91.0,-18.0,-56.0,8.0,-97.0,0.0,0.0,0.0,0.0,0.0,0.0,0.0,0.0,3
-1518.0,-510.0,-279.0,-237.0,-162.0,-118.0,-185.0,-457.0,0.0,0.0,0.0,0.0,0.0,0.0,0.0,0.0,3
-748.0,263.0,-143.0,-233.0,-160.0,-138.0,-379.0,-487.0,0.0,0.0,0.0,0.0,0.0,0.0,0.0,0.0,3
191.0,830.0,128.0,-46.0,-17.0,-68.0,-383.0,-416.0,0.0,0.0,0.0,0.0,0.0,0.0,0.0,0.0,3
452.0,779.0,261.0,58.0,39.0,-27.0,-200.0,-208.0,0.0,0.0,0.0,0.0,0.0,0.0,0.0,0.0,3
576.0,550.0,245.0,-5.0,-53.0,-78.0,-66.0,-105.0,0.0,0.0,0.0,0.0,0.0,0.0,0.0,0.0,3
844.0,282.0,42.0,-140.0,-148.0,-62.0,100.0,-13.0,0.0,0.0,0.0,0.0,0.0,0.0,0.0,0.0,3
1046.0,-93.0,-203.0,-233.0,-211.0,-67.0,-3.0,12.0,0.0,0.0,0.0,0.0,0.0,0.0,0.0,0.0,3
747.0,-353.0,-345.0,-271.0,-203.0,-24.0,-83.0,72.0,0.0,0.0,0.0,0.0,0.0,0.0,0.0,0.0,3
568.0,100.0,-234.0,-151.0,-105.0,3.0,-134.0,144.0,0.0,0.0,0.0,0.0,0.0,0.0,0.0,0.0,3
135.0,271.0,-75.0,10.0,11.0,25.0,-147.0,60.0,0.0,0.0,0.0,0.0,0.0,0.0,0.0,0.0,3
-590.0,-180.0,-134.0,-11.0,13.0,59.0,71.0,181.0,0.0,0.0,0.0,0.0,0.0,0.0,0.0,0.0,3
-969.0,-620.0,-89.0,24.0,74.0,107.0,193.0,208.0,0.0,0.0,0.0,0.0,0.0,0.0,0.0,0.0,3
-1019.0,-47.0,76.0,-48.0,12.0,51.0,46.0,-70.0,0.0,0.0,0.0,0.0,0.0,0.0,0.0,0.0,3
-1045.0,326.0,95.0,-191.0,-140.0,-123.0,-99.0,-148.0,0.0,0.0,0.0,0.0,0.0,0.0,0.0,0.0,3
-1402.0,-425.0,-185.0,-335.0,-323.0,-338.0,-314.0,-271.0,0.0,0.0,0.0,0.0,0.0,0.0,0.0,0.0,3
-863.0,-137.0,-290.0,-361.0,-373.0,-411.0,-426.0,-359.0,0.0,0.0,0.0,0.0,0.0,0.0,0.0,0.0,3
-115.0,-345.0,-500.0,-343.0,-290.0,-308.0,-249.0,-284.0,0.0,0.0,0.0,0.0,0.0,0.0,0.0,0.0,3
239.0,-1072.0,-722.0,-302.0,-163.0,-104.0,-152.0,-81.0,0.0,0.0,0.0,0.0,0.0,0.0,0.0,0.0,3
293.0,-880.0,-528.0,-194.0,-66.0,-18.0,-205.0,128.0,0.0,0.0,0.0,0.0,0.0,0.0,0.0,0.0,3
169.0,-111.0,-135.0,-79.0,-12.0,125.0,-61.0,101.0,0.0,0.0,0.0,0.0,0.0,0.0,0.0,0.0,3
180.0,-29.0,126.0,31.0,49.0,211.0,344.0,88.0,0.0,0.0,0.0,0.0,0.0,0.0,0.0,0.0,3
415.0,23.0,216.0,69.0,72.0,159.0,618.0,208.0,0.0,0.0,0.0,0.0,0.0,0.0,0.0,0.0,3
678.0,276.0,293.0,81.0,67.0,12.0,325.0,138.0,0.0,0.0,0.0,0.0,0.0,0.0,0.0,0.0,3
353.0,348.0,270.0,46.0,12.0,-155.0,-200.0,-23.0,0.0,0.0,0.0,0.0,0.0,0.0,0.0,0.0,3
-357.0,-74.0,139.0,14.0,13.0,-170.0,-329.0,104.0,0.0,0.0,0.0,0.0,0.0,0.0,0.0,0.0,3
-447.0,-405.0,-13.0,-5.0,28.0,-134.0,-193.0,41.0,0.0,0.0,0.0,0.0,0.0,0.0,0.0,0.0,3
-40.0,-201.0,-40.0,24.0,43.0,-88.0,32.0,-125.0,0.0,0.0,0.0,0.0,0.0,0.0,0.0,0.0,3
289.0,-139.0,38.0,105.0,88.0,1.0,190.0,-139.0,0.0,0.0,0.0,0.0,0.0,0.0,0.0,0.0,3
362.0,-30.0,86.0,103.0,78.0,33.0,132.0,2.0,0.0,0.0,0.0,0.0,0.0,0.0,0.0,0.0,3
277.0,398.0,256.0,143.0,100.0,75.0,-10.0,96.0,0.0,0.0,0.0,0.0,0.0,0.0,0.0,0.0,3
-1.0,981.0,448.0,159.0,109.0,148.0,115.0,389.0,0.0,0.0,0.0,0.0,0.0,0.0,0.0,0.0,3
-405.0,1090.0,477.0,120.0,51.0,94.0,90.0,448.0,0.0,0.0,0.0,0.0,0.0,0.0,0.0,0.0,3
178.0,836.0,412.0,150.0,62.0,27.0,-55.0,-9.0,0.0,0.0,0.0,0.0,0.0,0.0,0.0,0.0,3
401.0,139.0,55.0,139.0,96.0,8.0,-15.0,-210.0,0.0,0.0,0.0,0.0,0.0,0.0,0.0,0.0,3
25.0,-336.0,-376.0,-10.0,28.0,-55.0,-4.0,-227.0,0.0,0.0,0.0,0.0,0.0,0.0,0.0,0.0,3
-539.0,-1219.0,-612.0,-157.0,-51.0,-84.0,-140.0,-90.0,0.0,0.0,0.0,0.0,0.0,0.0,0.0,0.0,3
-960.0,-1062.0,-408.0,-129.0,-65.0,-107.0,-408.0,-183.0,0.0,0.0,0.0,0.0,0.0,0.0,0.0,0.0,3
-707.0,80.0,4.0,-91.0,-122.0,-202.0,-570.0,-417.0,0.0,0.0,0.0,0.0,0.0,0.0,0.0,0.0,3
-78.0,962.0,271.0,-79.0,-173.0,-228.0,-484.0,-490.0,0.0,0.0,0.0,0.0,0.0,0.0,0.0,0.0,3
321.0,758.0,119.0,-107.0,-158.0,-154.0,-240.0,-276.0,0.0,0.0,0.0,0.0,0.0,0.0,0.0,0.0,3
155.0,-722.0,-299.0,-59.0,-22.0,-30.0,-53.0,-141.0,0.0,0.0,0.0,0.0,0.0,0.0,0.0,0.0,3
122.0,-1078.0,-446.0,-5.0,69.0,41.0,58.0,-80.0,0.0,0.0,0.0,0.0,0.0,0.0,0.0,0.0,3
-59.0,-451.0,-154.0,66.0,85.0,40.0,81.0,-13.0,0.0,0.0,0.0,0.0,0.0,0.0,0.0,0.0,3
-568.0,-449.0,32.0,73.0,34.0,4.0,-34.0,-50.0,0.0,0.0,0.0,0.0,0.0,0.0,0.0,0.0,3
-655.0,-365.0,119.0,47.0,-26.0,-29.0,-204.0,-190.0,0.0,0.0,0.0,0.0,0.0,0.0,0.0,0.0,3
-141.0,218.0,229.0,86.0,-2.0,-39.0,-210.0,-264.0,0.0,0.0,0.0,0.0,0.0,0.0,0.0,0.0,3
176.0,329.0,208.0,147.0,74.0,-43.0,-8.0,-148.0,0.0,0.0,0.0,0.0,0.0,0.0,0.0,0.0,3
483.0,494.0,242.0,208.0,129.0,-42.0,138.0,111.0,0.0,0.0,0.0,0.0,0.0,0.0,0.0,0.0,3
581.0,307.0,153.0,113.0,31.0,-152.0,-176.0,207.0,0.0,0.0,0.0,0.0,0.0,0.0,0.0,0.0,3
280.0,24.0,-89.0,-98.0,-143.0,-191.0,-330.0,-73.0,0.0,0.0,0.0,0.0,0.0,0.0,0.0,0.0,3
-274.0,-264.0,-173.0,-146.0,-131.0,29.0,-22.0,-210.0,0.0,0.0,0.0,0.0,0.0,0.0,0.0,0.0,3
-493.0,-260.0,-104.0,-83.0,-26.0,284.0,518.0,43.0,0.0,0.0,0.0,0.0,0.0,0.0,0.0,0.0,3
-413.0,-117.0,-49.0,-13.0,33.0,304.0,579.0,252.0,0.0,0.0,0.0,0.0,0.0,0.0,0.0,0.0,3
-144.0,454.0,105.0,22.0,29.0,163.0,265.0,181.0,0.0,0.0,0.0,0.0,0.0,0.0,0.0,0.0,3
-287.0,567.0,185.0,-67.0,-70.0,-42.0,46.0,6.0,0.0,0.0,0.0,0.0,0.0,0.0,0.0,0.0,3
-495.0,-251.0,-9.0,-180.0,-152.0,-175.0,35.0,-145.0,0.0,0.0,0.0,0.0,0.0,0.0,0.0,0.0,3
-410.0,-651.0,-258.0,-226.0,-185.0,-184.0,27.0,-183.0,0.0,0.0,0.0,0.0,0.0,0.0,0.0,0.0,3
470.0,-281.0,-245.0,-161.0,-134.0,-117.0,19.0,-14.0,0.0,0.0,0.0,0.0,0.0,0.0,0.0,0.0,3
1071.0,51.0,-128.0,-93.0,-79.0,14.0,297.0,573.0,0.0,0.0,0.0,0.0,0.0,0.0,0.0,0.0,3
873.0,245.0,-34.0,-54.0,-23.0,170.0,522.0,565.0,0.0,0.0,0.0,0.0,0.0,0.0,0.0,0.0,3
690.0,315.0,-28.0,-113.0,-69.0,103.0,232.0,-49.0,0.0,0.0,0.0,0.0,0.0,0.0,0.0,0.0,3
354.0,-79.0,112.0,-75.0,-70.0,-21.0,95.0,-286.0,0.0,0.0,0.0,0.0,0.0,0.0,0.0,0.0,3
198.0,393.0,329.0,19.0,-27.0,-7.0,314.0,71.0,0.0,0.0,0.0,0.0,0.0,0.0,0.0,0.0,3
264.0,955.0,365.0,80.0,30.0,39.0,322.0,350.0,0.0,0.0,0.0,0.0,0.0,0.0,0.0,0.0,3
-73.0,463.0,126.0,73.0,56.0,9.0,71.0,236.0,0.0,0.0,0.0,0.0,0.0,0.0,0.0,0.0,3
-194.0,-600.0,-376.0,-60.0,-29.0,-156.0,-579.0,-280.0,0.0,0.0,0.0,0.0,0.0,0.0,0.0,0.0,3
299.0,-1302.0,-852.0,-193.0,-71.0,-241.0,-956.0,-204.0,0.0,0.0,0.0,0.0,0.0,0.0,0.0,0.0,3
885.0,-1024.0,-884.0,-296.0,-125.0,-251.0,-787.0,10.0,0.0,0.0,0.0,0.0,0.0,0.0,0.0,0.0,3
954.0,-45.0,-455.0,-298.0,-180.0,-259.0,-621.0,-196.0,0.0,0.0,0.0,0.0,0.0,0.0,0.0,0.0,3
322.0,322.0,-122.0,-197.0,-133.0,-187.0,-574.0,-701.0,0.0,0.0,0.0,0.0,0.0,0.0,0.0,0.0,3
-754.0,-394.0,-156.0,-125.0,-63.0,-113.0,-466.0,-658.0,0.0,0.0,0.0,0.0,0.0,0.0,0.0,0.0,3
-1581.0,-955.0,-236.0,-119.0,-75.0,-124.0,-458.0,-474.0,0.0,0.0,0.0,0.0,0.0,0.0,0.0,0.0,3
-1765.0,-872.0,-209.0,-79.0,-56.0,-102.0,-274.0,-193.0,0.0,0.0,0.0,0.0,0.0,0.0,0.0,0.0,3
-1318.0,-237.0,-114.0,-22.0,-32.0,-91.0,-85.0,36.0,0.0,0.0,0.0,0.0,0.0,0.0,0.0,0.0,3
-670.0,585.0,151.0,91.0,28.0,-41.0,49.0,113.0,0.0,0.0,0.0,0.0,0.0,0.0,0.0,0.0,3
-604.0,916.0,385.0,216.0,90.0,6.0,115.0,171.0,0.0,0.0,0.0,0.0,0.0,0.0,0.0,0.0,3
-712.0,578.0,424.0,205.0,58.0,-40.0,50.0,107.0,0.0,0.0,0.0,0.0,0.0,0.0,0.0,0.0,3
-688.0,-465.0,231.0,95.0,-9.0,-88.0,-30.0,-11.0,0.0,0.0,0.0,0.0,0.0,0.0,0.0,0.0,3
101.0,-429.0,27.0,-8.0,-62.0,-111.0,-40.0,-83.0,0.0,0.0,0.0,0.0,0.0,0.0,0.0,0.0,3
623.0,149.0,0.0,-87.0,-126.0,-83.0,37.0,-128.0,0.0,0.0,0.0,0.0,0.0,0.0,0.0,0.0,3
803.0,207.0,139.0,-25.0,-71.0,53.0,108.0,-56.0,0.0,0.0,0.0,0.0,0.0,0.0,0.0,0.0,3
702.0,147.0,214.0,49.0,1.0,141.0,209.0,24.0,0.0,0.0,0.0,0.0,0.0,0.0,0.0,0.0,3
491.0,288.0,234.0,49.0,4.0,129.0,338.0,66.0,0.0,0.0,0.0,0.0,0.0,0.0,0.0,0.0,3
428.0,244.0,199.0,53.0,1.0,138.0,475.0,170.0,0.0,0.0,0.0,0.0,0.0,0.0,0.0,0.0,3
377.0,274.0,151.0,43.0,2.0,131.0,483.0,228.0,0.0,0.0,0.0,0.0,0.0,0.0,0.0,0.0,3
251.0,66.0,-3.0,15.0,16.0,157.0,501.0,242.0,0.0,0.0,0.0,0.0,0.0,0.0,0.0,0.0,3
232.0,-114.0,-179.0,-44.0,-2.0,132.0,441.0,297.0,0.0,0.0,0.0,0.0,0.0,0.0,0.0,0.0,3
370.0,131.0,-157.0,-43.0,-11.0,33.0,236.0,301.0,0.0,0.0,0.0,0.0,0.0,0.0,0.0,0.0,3
241.0,311.0,-126.0,-47.0,-26.0,-43.0,-10.0,124.0,0.0,0.0,0.0,0.0,0.0,0.0,0.0,0.0,3
35.0,303.0,-39.0,-35.0,-16.0,-74.0,-149.0,-90.0,0.0,0.0,0.0,0.0,0.0,0.0,0.0,0.0,3
-261.0,-36.0,-26.0,-23.0,-23.0,-145.0,-176.0,-69.0,0.0,0.0,0.0,0.0,0.0,0.0,0.0,0.0,3
-410.0,-414.0,-118.0,-32.0,-35.0,-162.0,-205.0,-94.0,0.0,0.0,0.0,0.0,0.0,0.0,0.0,0.0,3
-249.0,-749.0,-219.0,18.0,28.0,-79.0,-158.0,-101.0,0.0,0.0,0.0,0.0,0.0,0.0,0.0,0.0,3
249.0,-446.0,-2.0,198.0,166.0,114.0,75.0,123.0,0.0,0.0,0.0,0.0,0.0,0.0,0.0,0.0,3
317.0,117.0,139.0,154.0,106.0,130.0,272.0,67.0,0.0,0.0,0.0,0.0,0.0,0.0,0.0,0.0,3
177.0,840.0,179.0,-74.0,-155.0,-90.0,103.0,-138.0,0.0,0.0,0.0,0.0,0.0,0.0,0.0,0.0,3
35.0,939.0,166.0,-142.0,-239.0,-205.0,-158.0,-174.0,0.0,0.0,0.0,0.0,0.0,0.0,0.0,0.0,3
-354.0,205.0,3.0,-87.0,-140.0,-213.0,-315.0,-114.0,0.0,0.0,0.0,0.0,0.0,0.0,0.0,0.0,3
-517.0,-174.0,-127.0,-73.0,-45.0,-85.0,-206.0,-38.0,0.0,0.0,0.0,0.0,0.0,0.0,0.0,0.0,3
-551.0,-404.0,-126.0,-57.0,3.0,75.0,40.0,101.0,0.0,0.0,0.0,0.0,0.0,0.0,0.0,0.0,3
-504.0,-325.0,-88.0,-69.0,-30.0,-2.0,-86.0,19.0,0.0,0.0,0.0,0.0,0.0,0.0,0.0,0.0,3
-363.0,139.0,-126.0,-147.0,-96.0,-69.0,-284.0,-85.0,0.0,0.0,0.0,0.0,0.0,0.0,0.0,0.0,3
-444.0,-208.0,-160.0,-117.0,-80.0,-84.0,-398.0,-202.0,0.0,0.0,0.0,0.0,0.0,0.0,0.0,0.0,3
-311.0,-176.0,-33.0,-32.0,-38.0,-53.0,-319.0,-331.0,0.0,0.0,0.0,0.0,0.0,0.0,0.0,0.0,3
-233.0,-171.0,54.0,0.0,-35.0,-58.0,-59.0,-354.0,0.0,0.0,0.0,0.0,0.0,0.0,0.0,0.0,3
-107.0,16.0,65.0,-2.0,-32.0,-54.0,156.0,50.0,0.0,0.0,0.0,0.0,0.0,0.0,0.0,0.0,3
513.0,254.0,-84.0,-42.0,-64.0,-44.0,70.0,316.0,0.0,0.0,0.0,0.0,0.0,0.0,0.0,0.0,3
724.0,-115.0,-342.0,-123.0,-102.0,-114.0,-165.0,89.0,0.0,0.0,0.0,0.0,0.0,0.0,0.0,0.0,3
439.0,-435.0,-402.0,-121.0,-92.0,-198.0,-453.0,-224.0,0.0,0.0,0.0,0.0,0.0,0.0,0.0,0.0,3
-325.0,-1251.0,-476.0,-57.0,-24.0,-216.0,-415.0,-300.0,0.0,0.0,0.0,0.0,0.0,0.0,0.0,0.0,3
-1319.0,-1625.0,-563.0,-112.0,-58.0,-202.0,-353.0,-193.0,0.0,0.0,0.0,0.0,0.0,0.0,0.0,0.0,3
-1412.0,-1244.0,-411.0,-120.0,-88.0,-163.0,-353.0,-198.0,0.0,0.0,0.0,0.0,0.0,0.0,0.0,0.0,3
-852.0,-520.0,-171.0,-120.0,-128.0,-76.0,-108.0,-217.0,0.0,0.0,0.0,0.0,0.0,0.0,0.0,0.0,3
-229.0,241.0,35.0,-97.0,-99.0,151.0,425.0,-132.0,0.0,0.0,0.0,0.0,0.0,0.0,0.0,0.0,3
311.0,453.0,111.0,-69.0,-49.0,173.0,568.0,29.0,0.0,0.0,0.0,0.0,0.0,0.0,0.0,0.0,3
431.0,493.0,155.0,-38.0,-44.0,49.0,244.0,208.0,0.0,0.0,0.0,0.0,0.0,0.0,0.0,0.0,3
403.0,46.0,156.0,38.0,-10.0,-11.0,33.0,138.0,0.0,0.0,0.0,0.0,0.0,0.0,0.0,0.0,3
338.0,-94.0,102.0,44.0,18.0,6.0,109.0,-36.0,0.0,0.0,0.0,0.0,0.0,0.0,0.0,0.0,3
94.0,356.0,153.0,-7.0,-31.0,-67.0,17.0,-138.0,0.0,0.0,0.0,0.0,0.0,0.0,0.0,0.0,3
-89.0,798.0,194.0,-33.0,-63.0,-123.0,-267.0,-58.0,0.0,0.0,0.0,0.0,0.0,0.0,0.0,0.0,3
369.0,906.0,161.0,16.0,-25.0,-110.0,-292.0,26.0,0.0,0.0,0.0,0.0,0.0,0.0,0.0,0.0,3
571.0,323.0,41.0,140.0,76.0,0.0,-174.0,27.0,0.0,0.0,0.0,0.0,0.0,0.0,0.0,0.0,3
189.0,-233.0,-61.0,152.0,102.0,25.0,-147.0,-1.0,0.0,0.0,0.0,0.0,0.0,0.0,0.0,0.0,3
9.0,-259.0,9.0,69.0,35.0,-28.0,-196.0,10.0,0.0,0.0,0.0,0.0,0.0,0.0,0.0,0.0,3
62.0,-83.0,48.0,-6.0,-14.0,-20.0,-124.0,49.0,0.0,0.0,0.0,0.0,0.0,0.0,0.0,0.0,3
243.0,136.0,99.0,-14.0,-6.0,4.0,-31.0,-4.0,0.0,0.0,0.0,0.0,0.0,0.0,0.0,0.0,3
184.0,180.0,119.0,5.0,5.0,32.0,10.0,-117.0,0.0,0.0,0.0,0.0,0.0,0.0,0.0,0.0,3
-3.0,181.0,79.0,-26.0,-24.0,-7.0,21.0,-144.0,0.0,0.0,0.0,0.0,0.0,0.0,0.0,0.0,3
329.0,480.0,109.0,-68.0,-68.0,-70.0,-22.0,-137.0,0.0,0.0,0.0,0.0,0.0,0.0,0.0,0.0,3
535.0,505.0,149.0,-8.0,-27.0,-73.0,2.0,-23.0,0.0,0.0,0.0,0.0,0.0,0.0,0.0,0.0,3
431.0,338.0,92.0,-2.0,-15.0,-80.0,32.0,-43.0,0.0,0.0,0.0,0.0,0.0,0.0,0.0,0.0,3
513.0,473.0,64.0,-24.0,-26.0,-76.0,80.0,-16.0,0.0,0.0,0.0,0.0,0.0,0.0,0.0,0.0,3
571.0,272.0,-47.0,-46.0,-23.0,-71.0,41.0,9.0,0.0,0.0,0.0,0.0,0.0,0.0,0.0,0.0,3
520.0,-254.0,-185.0,-63.0,-16.0,-25.0,-70.0,48.0,0.0,0.0,0.0,0.0,0.0,0.0,0.0,0.0,3
42.0,-863.0,-214.0,-79.0,8.0,65.0,12.0,87.0,0.0,0.0,0.0,0.0,0.0,0.0,0.0,0.0,3
-681.0,-1037.0,-230.0,-116.0,-20.0,35.0,36.0,55.0,0.0,0.0,0.0,0.0,0.0,0.0,0.0,0.0,3
-606.0,-353.0,-71.0,-67.0,-7.0,34.0,62.0,-27.0,0.0,0.0,0.0,0.0,0.0,0.0,0.0,0.0,3
-404.0,327.0,64.0,-3.0,30.0,87.0,140.0,-83.0,0.0,0.0,0.0,0.0,0.0,0.0,0.0,0.0,3
-542.0,273.0,-41.0,-58.0,-28.0,43.0,294.0,-79.0,0.0,0.0,0.0,0.0,0.0,0.0,0.0,0.0,3
-519.0,-38.0,-168.0,-138.0,-125.0,-91.0,398.0,-54.0,0.0,0.0,0.0,0.0,0.0,0.0,0.0,0.0,3
-363.0,-114.0,-143.0,-145.0,-134.0,-154.0,78.0,5.0,0.0,0.0,0.0,0.0,0.0,0.0,0.0,0.0,3
-219.0,-155.0,-57.0,-64.0,-74.0,-127.0,-197.0,141.0,0.0,0.0,0.0,0.0,0.0,0.0,0.0,0.0,3
-132.0,-133.0,41.0,52.0,21.0,-59.0,-226.0,125.0,0.0,0.0,0.0,0.0,0.0,0.0,0.0,0.0,3
-54.0,3.0,96.0,92.0,36.0,-28.0,-200.0,-55.0,0.0,0.0,0.0,0.0,0.0,0.0,0.0,0.0,3
143.0,247.0,91.0,58.0,-4.0,-9.0,-61.0,6.0,0.0,0.0,0.0,0.0,0.0,0.0,0.0,0.0,3
-35.0,97.0,18.0,12.0,-46.0,-33.0,-22.0,-64.0,0.0,0.0,0.0,0.0,0.0,0.0,0.0,0.0,3
-6.0,-174.0,-35.0,-6.0,-69.0,-60.0,-76.0,-237.0,0.0,0.0,0.0,0.0,0.0,0.0,0.0,0.0,3
-13.0,-369.0,-59.0,4.0,-20.0,-24.0,-80.0,-246.0,0.0,0.0,0.0,0.0,0.0,0.0,0.0,0.0,3
-268.0,-345.0,-67.0,2.0,16.0,-35.0,-77.0,-161.0,0.0,0.0,0.0,0.0,0.0,0.0,0.0,0.0,3
-235.0,-39.0,42.0,-20.0,-5.0,-27.0,-31.0,-36.0,0.0,0.0,0.0,0.0,0.0,0.0,0.0,0.0,3
-471.0,-146.0,-11.0,-115.0,-94.0,-91.0,-14.0,17.0,0.0,0.0,0.0,0.0,0.0,0.0,0.0,0.0,3
-313.0,51.0,-124.0,-192.0,-157.0,-153.0,-56.0,52.0,0.0,0.0,0.0,0.0,0.0,0.0,0.0,0.0,3
-125.0,-61.0,-120.0,-106.0,-93.0,-88.0,15.0,192.0,0.0,0.0,0.0,0.0,0.0,0.0,0.0,0.0,3
63.0,-565.0,-232.0,-24.0,-11.0,-30.0,58.0,230.0,0.0,0.0,0.0,0.0,0.0,0.0,0.0,0.0,3
371.0,-771.0,-326.0,-30.0,8.0,51.0,129.0,128.0,0.0,0.0,0.0,0.0,0.0,0.0,0.0,0.0,3
401.0,-519.0,-241.0,-56.0,-7.0,131.0,280.0,141.0,0.0,0.0,0.0,0.0,0.0,0.0,0.0,0.0,3
146.0,-77.0,-197.0,-112.0,-77.0,45.0,159.0,89.0,0.0,0.0,0.0,0.0,0.0,0.0,0.0,0.0,3
-385.0,-240.0,-308.0,-222.0,-198.0,-151.0,-135.0,-256.0,0.0,0.0,0.0,0.0,0.0,0.0,0.0,0.0,3
-548.0,-201.0,-193.0,-234.0,-222.0,-207.0,-208.0,-330.0,0.0,0.0,0.0,0.0,0.0,0.0,0.0,0.0,3
-373.0,49.0,-16.0,-169.0,-156.0,-139.0,-327.0,-139.0,0.0,0.0,0.0,0.0,0.0,0.0,0.0,0.0,3
286.0,408.0,134.0,-52.0,-50.0,-43.0,-369.0,-86.0,0.0,0.0,0.0,0.0,0.0,0.0,0.0,0.0,3
468.0,555.0,219.0,5.0,1.0,17.0,-235.0,-119.0,0.0,0.0,0.0,0.0,0.0,0.0,0.0,0.0,3
108.0,445.0,213.0,-8.0,-20.0,4.0,-222.0,-184.0,0.0,0.0,0.0,0.0,0.0,0.0,0.0,0.0,3
-200.0,224.0,157.0,-2.0,-19.0,-20.0,-286.0,-193.0,0.0,0.0,0.0,0.0,0.0,0.0,0.0,0.0,3
-619.0,-303.0,-108.0,-96.0,-55.0,-58.0,-372.0,-214.0,0.0,0.0,0.0,0.0,0.0,0.0,0.0,0.0,3
-621.0,-395.0,-266.0,-92.0,-46.0,-63.0,-325.0,-123.0,0.0,0.0,0.0,0.0,0.0,0.0,0.0,0.0,3
-36.0,-10.0,-163.0,46.0,53.0,-9.0,-137.0,-2.0,0.0,0.0,0.0,0.0,0.0,0.0,0.0,0.0,3
129.0,-44.0,-119.0,96.0,93.0,9.0,-25.0,13.0,0.0,0.0,0.0,0.0,0.0,0.0,0.0,0.0,3
6.0,-108.0,-98.0,100.0,112.0,-13.0,40.0,-35.0,0.0,0.0,0.0,0.0,0.0,0.0,0.0,0.0,3
44.0,267.0,41.0,162.0,146.0,1.0,114.0,-69.0,0.0,0.0,0.0,0.0,0.0,0.0,0.0,0.0,3
141.0,389.0,172.0,163.0,102.0,-9.0,176.0,20.0,0.0,0.0,0.0,0.0,0.0,0.0,0.0,0.0,3
286.0,237.0,118.0,127.0,67.0,-1.0,143.0,105.0,0.0,0.0,0.0,0.0,0.0,0.0,0.0,0.0,3
302.0,442.0,36.0,126.0,79.0,49.0,43.0,89.0,0.0,0.0,0.0,0.0,0.0,0.0,0.0,0.0,3
412.0,655.0,68.0,73.0,47.0,50.0,28.0,-54.0,0.0,0.0,0.0,0.0,0.0,0.0,0.0,0.0,3
405.0,476.0,156.0,39.0,12.0,-4.0,54.0,-99.0,0.0,0.0,0.0,0.0,0.0,0.0,0.0,0.0,3
306.0,144.0,125.0,-16.0,-43.0,-25.0,158.0,-82.0,0.0,0.0,0.0,0.0,0.0,0.0,0.0,0.0,3
295.0,-238.0,49.0,-91.0,-120.0,-79.0,114.0,-65.0,0.0,0.0,0.0,0.0,0.0,0.0,0.0,0.0,3
175.0,-326.0,106.0,-76.0,-129.0,-127.0,95.0,84.0,0.0,0.0,0.0,0.0,0.0,0.0,0.0,0.0,3
-16.0,64.0,304.0,2.0,-88.0,-100.0,68.0,162.0,0.0,0.0,0.0,0.0,0.0,0.0,0.0,0.0,3
-7.0,257.0,315.0,29.0,-51.0,-46.0,1.0,27.0,0.0,0.0,0.0,0.0,0.0,0.0,0.0,0.0,3
47.0,198.0,248.0,55.0,-7.0,34.0,-24.0,-116.0,0.0,0.0,0.0,0.0,0.0,0.0,0.0,0.0,3
95.0,125.0,172.0,28.0,1.0,107.0,210.0,108.0,0.0,0.0,0.0,0.0,0.0,0.0,0.0,0.0,3
33.0,-130.0,-57.0,-69.0,-32.0,96.0,219.0,225.0,0.0,0.0,0.0,0.0,0.0,0.0,0.0,0.0,3
56.0,-497.0,-270.0,-130.0,-54.0,22.0,-63.0,52.0,0.0,0.0,0.0,0.0,0.0,0.0,0.0,0.0,3
148.0,-849.0,-545.0,-205.0,-89.0,-93.0,-374.0,-74.0,0.0,0.0,0.0,0.0,0.0,0.0,0.0,0.0,3
67.0,-521.0,-556.0,-216.0,-91.0,-93.0,-338.0,-63.0,0.0,0.0,0.0,0.0,0.0,0.0,0.0,0.0,3
184.0,93.0,-296.0,-208.0,-133.0,-128.0,-226.0,-74.0,0.0,0.0,0.0,0.0,0.0,0.0,0.0,0.0,3
-157.0,244.0,-108.0,-239.0,-195.0,-155.0,-123.0,-134.0,0.0,0.0,0.0,0.0,0.0,0.0,0.0,0.0,3
-1007.0,-600.0,-255.0,-345.0,-250.0,-50.0,176.0,-120.0,0.0,0.0,0.0,0.0,0.0,0.0,0.0,0.0,3
-1328.0,-938.0,-356.0,-298.0,-182.0,130.0,450.0,-84.0,0.0,0.0,0.0,0.0,0.0,0.0,0.0,0.0,3
-1252.0,-1059.0,-393.0,-215.0,-124.0,49.0,278.0,-144.0,0.0,0.0,0.0,0.0,0.0,0.0,0.0,0.0,3
-795.0,-846.0,-321.0,-100.0,-53.0,4.0,62.0,-168.0,0.0,0.0,0.0,0.0,0.0,0.0,0.0,0.0,3
-184.0,-433.0,-142.0,36.0,40.0,42.0,-41.0,-172.0,0.0,0.0,0.0,0.0,0.0,0.0,0.0,0.0,3
32.0,63.0,89.0,136.0,88.0,36.0,-37.0,-91.0,0.0,0.0,0.0,0.0,0.0,0.0,0.0,0.0,3
202.0,310.0,153.0,141.0,73.0,-20.0,-188.0,28.0,0.0,0.0,0.0,0.0,0.0,0.0,0.0,0.0,3
287.0,221.0,130.0,134.0,59.0,-56.0,-285.0,50.0,0.0,0.0,0.0,0.0,0.0,0.0,0.0,0.0,3
156.0,244.0,145.0,139.0,53.0,-123.0,-455.0,-87.0,0.0,0.0,0.0,0.0,0.0,0.0,0.0,0.0,3
17.0,660.0,221.0,111.0,28.0,-169.0,-552.0,-240.0,0.0,0.0,0.0,0.0,0.0,0.0,0.0,0.0,3
117.0,812.0,234.0,46.0,-14.0,-179.0,-296.0,-104.0,0.0,0.0,0.0,0.0,0.0,0.0,0.0,0.0,3
167.0,494.0,99.0,-69.0,-92.0,-128.0,3.0,16.0,0.0,0.0,0.0,0.0,0.0,0.0,0.0,0.0,3
143.0,54.0,-20.0,-97.0,-103.0,-20.0,40.0,-38.0,0.0,0.0,0.0,0.0,0.0,0.0,0.0,0.0,3
76.0,-487.0,-198.0,-124.0,-89.0,77.0,75.0,-115.0,0.0,0.0,0.0,0.0,0.0,0.0,0.0,0.0,3
153.0,-362.0,-195.0,-109.0,-57.0,145.0,309.0,-25.0,0.0,0.0,0.0,0.0,0.0,0.0,0.0,0.0,3
179.0,-142.0,-59.0,-14.0,-8.0,77.0,251.0,60.0,0.0,0.0,0.0,0.0,0.0,0.0,0.0,0.0,3
215.0,333.0,44.0,15.0,2.0,5.0,157.0,217.0,0.0,0.0,0.0,0.0,0.0,0.0,0.0,0.0,3
93.0,291.0,15.0,-38.0,-37.0,-34.0,99.0,207.0,0.0,0.0,0.0,0.0,0.0,0.0,0.0,0.0,3
-51.0,333.0,57.0,-29.0,-41.0,-45.0,29.0,139.0,0.0,0.0,0.0,0.0,0.0,0.0,0.0,0.0,3
77.0,667.0,263.0,48.0,-1.0,-22.0,23.0,144.0,0.0,0.0,0.0,0.0,0.0,0.0,0.0,0.0,3
98.0,575.0,377.0,169.0,106.0,80.0,319.0,205.0,0.0,0.0,0.0,0.0,0.0,0.0,0.0,0.0,3
392.0,378.0,342.0,227.0,169.0,126.0,395.0,155.0,0.0,0.0,0.0,0.0,0.0,0.0,0.0,0.0,3
381.0,15.0,162.0,161.0,118.0,59.0,128.0,21.0,0.0,0.0,0.0,0.0,0.0,0.0,0.0,0.0,3
-50.0,-573.0,-237.0,-31.0,-29.0,-113.0,-456.0,-364.0,0.0,0.0,0.0,0.0,0.0,0.0,0.0,0.0,3
86.0,-550.0,-435.0,-177.0,-140.0,-257.0,-826.0,-638.0,0.0,0.0,0.0,0.0,0.0,0.0,0.0,0.0,3
212.0,-251.0,-303.0,-111.0,-78.0,-182.0,-547.0,-359.0,0.0,0.0,0.0,0.0,0.0,0.0,0.0,0.0,3
-202.0,-392.0,-336.0,-128.0,-93.0,-149.0,-228.0,-146.0,0.0,0.0,0.0,0.0,0.0,0.0,0.0,0.0,3
-415.0,-34.0,-217.0,-114.0,-113.0,-136.0,-47.0,-37.0,0.0,0.0,0.0,0.0,0.0,0.0,0.0,0.0,3
-137.0,151.0,-17.0,-60.0,-93.0,-116.0,-35.0,-3.0,0.0,0.0,0.0,0.0,0.0,0.0,0.0,0.0,3
-33.0,-127.0,14.0,-62.0,-103.0,-133.0,-174.0,-89.0,0.0,0.0,0.0,0.0,0.0,0.0,0.0,0.0,3
-245.0,-479.0,-45.0,-80.0,-110.0,-130.0,-256.0,-121.0,0.0,0.0,0.0,0.0,0.0,0.0,0.0,0.0,3
-314.0,-483.0,-52.0,-79.0,-87.0,-76.0,-175.0,-53.0,0.0,0.0,0.0,0.0,0.0,0.0,0.0,0.0,3
-220.0,-292.0,-30.0,-61.0,-53.0,-11.0,9.0,3.0,0.0,0.0,0.0,0.0,0.0,0.0,0.0,0.0,3
-76.0,-258.0,-18.0,-39.0,-33.0,10.0,141.0,25.0,0.0,0.0,0.0,0.0,0.0,0.0,0.0,0.0,3
-86.0,-247.0,12.0,-9.0,-16.0,36.0,156.0,44.0,0.0,0.0,0.0,0.0,0.0,0.0,0.0,0.0,3
-178.0,-88.0,41.0,-12.0,-23.0,29.0,35.0,11.0,0.0,0.0,0.0,0.0,0.0,0.0,0.0,0.0,3
-142.0,167.0,159.0,18.0,-11.0,18.0,-73.0,-31.0,0.0,0.0,0.0,0.0,0.0,0.0,0.0,0.0,3
-151.0,485.0,159.0,11.0,0.0,37.0,91.0,-10.0,0.0,0.0,0.0,0.0,0.0,0.0,0.0,0.0,3
-88.0,546.0,126.0,9.0,-4.0,9.0,125.0,22.0,0.0,0.0,0.0,0.0,0.0,0.0,0.0,0.0,3
398.0,650.0,256.0,110.0,29.0,-44.0,22.0,73.0,0.0,0.0,0.0,0.0,0.0,0.0,0.0,0.0,3
407.0,273.0,190.0,160.0,74.0,14.0,32.0,73.0,0.0,0.0,0.0,0.0,0.0,0.0,0.0,0.0,3
91.0,-314.0,-44.0,119.0,108.0,138.0,266.0,-6.0,0.0,0.0,0.0,0.0,0.0,0.0,0.0,0.0,3
-753.0,-900.0,-225.0,11.0,62.0,132.0,406.0,-174.0,0.0,0.0,0.0,0.0,0.0,0.0,0.0,0.0,3
-747.0,-678.0,-375.0,-121.0,-16.0,105.0,172.0,-306.0,0.0,0.0,0.0,0.0,0.0,0.0,0.0,0.0,3
-134.0,-404.0,-342.0,-162.0,-42.0,56.0,35.0,-230.0,0.0,0.0,0.0,0.0,0.0,0.0,0.0,0.0,3
89.0,317.0,-37.0,-85.0,-31.0,-14.0,-14.0,-122.0,0.0,0.0,0.0,0.0,0.0,0.0,0.0,0.0,3
187.0,732.0,161.0,11.0,-18.0,-57.0,-81.0,-66.0,0.0,0.0,0.0,0.0,0.0,0.0,0.0,0.0,3
478.0,800.0,252.0,68.0,-4.0,-40.0,-88.0,109.0,0.0,0.0,0.0,0.0,0.0,0.0,0.0,0.0,3
631.0,348.0,105.0,27.0,-46.0,-59.0,-91.0,159.0,0.0,0.0,0.0,0.0,0.0,0.0,0.0,0.0,3
584.0,-381.0,-48.0,4.0,-47.0,-69.0,-39.0,119.0,0.0,0.0,0.0,0.0,0.0,0.0,0.0,0.0,3
96.0,-1202.0,-300.0,-50.0,-43.0,-4.0,76.0,93.0,0.0,0.0,0.0,0.0,0.0,0.0,0.0,0.0,3
-671.0,-1259.0,-471.0,-194.0,-135.0,-42.0,119.0,116.0,0.0,0.0,0.0,0.0,0.0,0.0,0.0,0.0,3
-824.0,-337.0,-381.0,-253.0,-190.0,-136.0,-20.0,70.0,0.0,0.0,0.0,0.0,0.0,0.0,0.0,0.0,3
-1003.0,-229.0,-397.0,-349.0,-278.0,-214.0,-252.0,-158.0,0.0,0.0,0.0,0.0,0.0,0.0,0.0,0.0,3
-857.0,-32.0,-292.0,-358.0,-297.0,-219.0,-275.0,-217.0,0.0,0.0,0.0,0.0,0.0,0.0,0.0,0.0,3
-281.0,127.0,-121.0,-219.0,-199.0,-153.0,-151.0,-116.0,0.0,0.0,0.0,0.0,0.0,0.0,0.0,0.0,3
-30.0,-10.0,9.0,-66.0,-92.0,-86.0,-16.0,20.0,0.0,0.0,0.0,0.0,0.0,0.0,0.0,0.0,3
245.0,330.0,149.0,30.0,-29.0,-47.0,19.0,107.0,0.0,0.0,0.0,0.0,0.0,0.0,0.0,0.0,3
526.0,573.0,159.0,14.0,-11.0,-34.0,-41.0,23.0,0.0,0.0,0.0,0.0,0.0,0.0,0.0,0.0,3
553.0,491.0,150.0,57.0,49.0,8.0,-74.0,-141.0,0.0,0.0,0.0,0.0,0.0,0.0,0.0,0.0,3
374.0,361.0,194.0,112.0,73.0,-14.0,-154.0,-262.0,0.0,0.0,0.0,0.0,0.0,0.0,0.0,0.0,3
-105.0,-61.0,61.0,58.0,28.0,-77.0,-209.0,-196.0,0.0,0.0,0.0,0.0,0.0,0.0,0.0,0.0,3
-110.0,-288.0,-35.0,22.0,9.0,-114.0,-228.0,-40.0,0.0,0.0,0.0,0.0,0.0,0.0,0.0,0.0,3
320.0,-87.0,30.0,46.0,30.0,-103.0,-126.0,35.0,0.0,0.0,0.0,0.0,0.0,0.0,0.0,0.0,3
552.0,413.0,142.0,92.0,50.0,-92.0,47.0,43.0,0.0,0.0,0.0,0.0,0.0,0.0,0.0,0.0,3
381.0,580.0,175.0,50.0,5.0,-33.0,243.0,23.0,0.0,0.0,0.0,0.0,0.0,0.0,0.0,0.0,3
42.0,326.0,102.0,-32.0,-62.0,25.0,183.0,-4.0,0.0,0.0,0.0,0.0,0.0,0.0,0.0,0.0,3
-69.0,83.0,-40.0,-83.0,-80.0,93.0,158.0,43.0,0.0,0.0,0.0,0.0,0.0,0.0,0.0,0.0,3
-66.0,-145.0,-108.0,-25.0,-15.0,98.0,194.0,201.0,0.0,0.0,0.0,0.0,0.0,0.0,0.0,0.0,3
-39.0,-212.0,-90.0,50.0,37.0,31.0,-91.0,-9.0,0.0,0.0,0.0,0.0,0.0,0.0,0.0,0.0,3
10.0,-89.0,-26.0,83.0,33.0,-11.0,-349.0,-393.0,0.0,0.0,0.0,0.0,0.0,0.0,0.0,0.0,3
164.0,102.0,33.0,77.0,15.0,-65.0,-434.0,-403.0,0.0,0.0,0.0,0.0,0.0,0.0,0.0,0.0,3
231.0,192.0,30.0,15.0,-39.0,-93.0,-300.0,-49.0,0.0,0.0,0.0,0.0,0.0,0.0,0.0,0.0,3
69.0,-40.0,-12.0,18.0,-29.0,2.0,-121.0,204.0,0.0,0.0,0.0,0.0,0.0,0.0,0.0,0.0,3
-193.0,-262.0,-67.0,-24.0,-45.0,19.0,-123.0,36.0,0.0,0.0,0.0,0.0,0.0,0.0,0.0,0.0,3
-327.0,-512.0,-139.0,-88.0,-86.0,38.0,-1.0,-80.0,0.0,0.0,0.0,0.0,0.0,0.0,0.0,0.0,3
-458.0,-810.0,-179.0,-93.0,-52.0,148.0,278.0,6.0,0.0,0.0,0.0,0.0,0.0,0.0,0.0,0.0,3
-181.0,-263.0,-108.0,-71.0,-29.0,60.0,267.0,67.0,0.0,0.0,0.0,0.0,0.0,0.0,0.0,0.0,3
-132.0,-102.0,-90.0,-56.0,-11.0,-6.0,102.0,65.0,0.0,0.0,0.0,0.0,0.0,0.0,0.0,0.0,3
-221.0,-59.0,-64.0,-27.0,8.0,-29.0,-2.0,20.0,0.0,0.0,0.0,0.0,0.0,0.0,0.0,0.0,3
-177.0,-83.0,-92.0,-23.0,14.0,-40.0,-24.0,-18.0,0.0,0.0,0.0,0.0,0.0,0.0,0.0,0.0,3
-180.0,-165.0,-144.0,-44.0,7.0,-53.0,-47.0,-74.0,0.0,0.0,0.0,0.0,0.0,0.0,0.0,0.0,3
-151.0,-103.0,-78.0,4.0,28.0,-44.0,-17.0,-28.0,0.0,0.0,0.0,0.0,0.0,0.0,0.0,0.0,3
-120.0,88.0,-36.0,9.0,-1.0,-60.0,-17.0,-15.0,0.0,0.0,0.0,0.0,0.0,0.0,0.0,0.0,3
39.0,279.0,29.0,22.0,-6.0,-54.0,-25.0,0.0,0.0,0.0,0.0,0.0,0.0,0.0,0.0,0.0,3
84.0,257.0,101.0,46.0,4.0,-65.0,-98.0,-17.0,0.0,0.0,0.0,0.0,0.0,0.0,0.0,0.0,3
71.0,-70.0,103.0,44.0,9.0,-77.0,-193.0,-56.0,0.0,0.0,0.0,0.0,0.0,0.0,0.0,0.0,3
54.0,-133.0,79.0,23.0,-2.0,-68.0,-208.0,-92.0,0.0,0.0,0.0,0.0,0.0,0.0,0.0,0.0,3
33.0,68.0,161.0,58.0,12.0,-31.0,-78.0,-80.0,0.0,0.0,0.0,0.0,0.0,0.0,0.0,0.0,3
165.0,296.0,286.0,110.0,27.0,16.0,136.0,9.0,0.0,0.0,0.0,0.0,0.0,0.0,0.0,0.0,3
177.0,147.0,196.0,54.0,-13.0,37.0,217.0,58.0,0.0,0.0,0.0,0.0,0.0,0.0,0.0,0.0,3
45.0,-259.0,5.0,-73.0,-85.0,8.0,127.0,38.0,0.0,0.0,0.0,0.0,0.0,0.0,0.0,0.0,3
116.0,-287.0,-148.0,-166.0,-122.0,-38.0,-15.0,6.0,0.0,0.0,0.0,0.0,0.0,0.0,0.0,0.0,3
180.0,-84.0,-250.0,-197.0,-108.0,-72.0,-58.0,-20.0,0.0,0.0,0.0,0.0,0.0,0.0,0.0,0.0,3
18.0,-77.0,-231.0,-132.0,-59.0,-44.0,1.0,17.0,0.0,0.0,0.0,0.0,0.0,0.0,0.0,0.0,3
-269.0,-290.0,-255.0,-130.0,-73.0,-41.0,14.0,-2.0,0.0,0.0,0.0,0.0,0.0,0.0,0.0,0.0,3
-365.0,-486.0,-363.0,-177.0,-123.0,-98.0,-98.0,-76.0,0.0,0.0,0.0,0.0,0.0,0.0,0.0,0.0,3
-565.0,-813.0,-464.0,-220.0,-136.0,-62.0,-131.0,-153.0,0.0,0.0,0.0,0.0,0.0,0.0,0.0,0.0,3
-1011.0,-877.0,-447.0,-250.0,-126.0,15.0,-70.0,-165.0,0.0,0.0,0.0,0.0,0.0,0.0,0.0,0.0,3
-952.0,-401.0,-277.0,-187.0,-88.0,-41.0,-69.0,-157.0,0.0,0.0,0.0,0.0,0.0,0.0,0.0,0.0,3
-483.0,17.0,-112.0,-112.0,-47.0,-64.0,-83.0,-108.0,0.0,0.0,0.0,0.0,0.0,0.0,0.0,0.0,3
40.0,521.0,74.0,-64.0,-26.0,-36.0,-63.0,-57.0,0.0,0.0,0.0,0.0,0.0,0.0,0.0,0.0,3
305.0,824.0,156.0,-68.0,-33.0,-53.0,-61.0,-34.0,0.0,0.0,0.0,0.0,0.0,0.0,0.0,0.0,3
307.0,614.0,121.0,-85.0,-47.0,-74.0,-64.0,-38.0,0.0,0.0,0.0,0.0,0.0,0.0,0.0,0.0,3
332.0,423.0,114.0,-58.0,-29.0,-55.0,-55.0,-16.0,0.0,0.0,0.0,0.0,0.0,0.0,0.0,0.0,3
382.0,383.0,139.0,2.0,-17.0,-57.0,-67.0,-26.0,0.0,0.0,0.0,0.0,0.0,0.0,0.0,0.0,3
297.0,169.0,106.0,26.0,-13.0,-67.0,-78.0,-24.0,0.0,0.0,0.0,0.0,0.0,0.0,0.0,0.0,3
184.0,-47.0,61.0,39.0,-3.0,-50.0,-65.0,-2.0,0.0,0.0,0.0,0.0,0.0,0.0,0.0,0.0,3
220.0,15.0,122.0,97.0,24.0,-22.0,-39.0,32.0,0.0,0.0,0.0,0.0,0.0,0.0,0.0,0.0,3
195.0,76.0,243.0,207.0,74.0,19.0,-22.0,37.0,0.0,0.0,0.0,0.0,0.0,0.0,0.0,0.0,3
91.0,-3.0,236.0,216.0,88.0,22.0,-28.0,3.0,0.0,0.0,0.0,0.0,0.0,0.0,0.0,0.0,3
9.0,-58.0,190.0,147.0,50.0,5.0,-35.0,-21.0,0.0,0.0,0.0,0.0,0.0,0.0,0.0,0.0,3
32.0,-53.0,140.0,60.0,17.0,-3.0,-35.0,-39.0,0.0,0.0,0.0,0.0,0.0,0.0,0.0,0.0,3
86.0,-42.0,115.0,49.0,5.0,-1.0,-31.0,-34.0,0.0,0.0,0.0,0.0,0.0,0.0,0.0,0.0,3
102.0,5.0,81.0,46.0,-8.0,-6.0,-24.0,-25.0,0.0,0.0,0.0,0.0,0.0,0.0,0.0,0.0,3
135.0,69.0,27.0,17.0,-29.0,-20.0,-7.0,-26.0,0.0,0.0,0.0,0.0,0.0,0.0,0.0,0.0,3
111.0,26.0,-1.0,-5.0,-39.0,-9.0,-6.0,-22.0,0.0,0.0,0.0,0.0,0.0,0.0,0.0,0.0,3
113.0,92.0,27.0,5.0,-37.0,-29.0,-33.0,-17.0,0.0,0.0,0.0,0.0,0.0,0.0,0.0,0.0,3
272.0,176.0,29.0,21.0,-25.0,-6.0,-4.0,-5.0,0.0,0.0,0.0,0.0,0.0,0.0,0.0,0.0,3
395.0,110.0,-44.0,2.0,-8.0,-16.0,22.0,-2.0,0.0,0.0,0.0,0.0,0.0,0.0,0.0,0.0,3
488.0,148.0,-88.0,-37.0,-10.0,-65.0,6.0,2.0,0.0,0.0,0.0,0.0,0.0,0.0,0.0,0.0,3
238.0,-187.0,-190.0,-95.0,-37.0,-74.0,14.0,20.0,0.0,0.0,0.0,0.0,0.0,0.0,0.0,0.0,3
-686.0,-876.0,-377.0,-207.0,-95.0,-96.0,-19.0,-27.0,0.0,0.0,0.0,0.0,0.0,0.0,0.0,0.0,3
-1111.0,-756.0,-416.0,-247.0,-109.0,-105.0,-68.0,-118.0,0.0,0.0,0.0,0.0,0.0,0.0,0.0,0.0,3
-669.0,-70.0,-235.0,-135.0,-36.0,-35.0,-13.0,-97.0,0.0,0.0,0.0,0.0,0.0,0.0,0.0,0.0,3
-318.0,170.0,-67.0,-37.0,18.0,9.0,8.0,-66.0,0.0,0.0,0.0,0.0,0.0,0.0,0.0,0.0,3
-123.0,127.0,-20.0,-25.0,-3.0,2.0,-13.0,-96.0,0.0,0.0,0.0,0.0,0.0,0.0,0.0,0.0,3
