CH1,CH2,CH3,CH4,CH5,CH6,CH7,CH8,CH9,CH10,CH11,CH12,CH13,CH14,CH15,CH16,label
-4050.0,-8555.0,-2983.0,-3010.0,802.0,4022.0,156.0,-146.0,0.0,0.0,0.0,0.0,0.0,0.0,0.0,0.0,0
-2736.0,-5654.0,-1993.0,-1996.0,535.0,2656.0,103.0,-86.0,0.0,0.0,0.0,0.0,0.0,0.0,0.0,0.0,0
-1647.0,-3242.0,-1180.0,-1180.0,300.0,1529.0,61.0,-35.0,0.0,0.0,0.0,0.0,0.0,0.0,0.0,0.0,0
-780.0,-1381.0,-529.0,-498.0,114.0,622.0,15.0,-5.0,0.0,0.0,0.0,0.0,0.0,0.0,0.0,0.0,0
-109.0,73.0,-12.0,50.0,-27.0,-84.0,-12.0,21.0,0.0,0.0,0.0,0.0,0.0,0.0,0.0,0.0,0
427.0,1198.0,389.0,464.0,-132.0,-619.0,-32.0,34.0,0.0,0.0,0.0,0.0,0.0,0.0,0.0,0.0,0
849.0,2050.0,694.0,752.0,-203.0,-1007.0,-45.0,23.0,0.0,0.0,0.0,0.0,0.0,0.0,0.0,0.0,0
1195.0,2646.0,911.0,945.0,-262.0,-1287.0,-69.0,10.0,0.0,0.0,0.0,0.0,0.0,0.0,0.0,0.0,0
1479.0,3001.0,1058.0,1070.0,-298.0,-1455.0,-82.0,0.0,0.0,0.0,0.0,0.0,0.0,0.0,0.0,0.0,0
1664.0,3223.0,1157.0,1139.0,-317.0,-1539.0,-87.0,-14.0,0.0,0.0,0.0,0.0,0.0,0.0,0.0,0.0,0
1770.0,3359.0,1207.0,1159.0,-333.0,-1560.0,-100.0,-18.0,0.0,0.0,0.0,0.0,0.0,0.0,0.0,0.0,0
1796.0,3351.0,1192.0,1131.0,-333.0,-1532.0,-98.0,-28.0,0.0,0.0,0.0,0.0,0.0,0.0,0.0,0.0,0
1755.0,3182.0,1124.0,1058.0,-328.0,-1465.0,-102.0,-39.0,0.0,0.0,0.0,0.0,0.0,0.0,0.0,0.0,0
1641.0,2927.0,1037.0,975.0,-311.0,-1377.0,-105.0,-37.0,0.0,0.0,0.0,0.0,0.0,0.0,0.0,0.0,0
1457.0,2627.0,934.0,869.0,-286.0,-1265.0,-98.0,-24.0,0.0,0.0,0.0,0.0,0.0,0.0,0.0,0.0,0
1272.0,2329.0,818.0,772.0,-268.0,-1133.0,-85.0,-16.0,0.0,0.0,0.0,0.0,0.0,0.0,0.0,0.0,0
1053.0,2044.0,698.0,663.0,-242.0,-990.0,-77.0,-5.0,0.0,0.0,0.0,0.0,0.0,0.0,0.0,0.0,0
783.0,1654.0,559.0,550.0,-210.0,-848.0,-76.0,7.0,0.0,0.0,0.0,0.0,0.0,0.0,0.0,0.0,0
530.0,1287.0,414.0,425.0,-179.0,-707.0,-71.0,13.0,0.0,0.0,0.0,0.0,0.0,0.0,0.0,0.0,0
316.0,1020.0,315.0,317.0,-144.0,-545.0,-57.0,32.0,0.0,0.0,0.0,0.0,0.0,0.0,0.0,0.0,0
120.0,713.0,236.0,226.0,-95.0,-381.0,-42.0,44.0,0.0,0.0,0.0,0.0,0.0,0.0,0.0,0.0,0
-118.0,297.0,112.0,104.0,-63.0,-219.0,-31.0,56.0,0.0,0.0,0.0,0.0,0.0,0.0,0.0,0.0,0
-418.0,-154.0,-68.0,-45.0,-44.0,-65.0,-36.0,44.0,0.0,0.0,0.0,0.0,0.0,0.0,0.0,0.0,0
-716.0,-645.0,-240.0,-193.0,-29.0,94.0,-38.0,40.0,0.0,0.0,0.0,0.0,0.0,0.0,0.0,0.0,0
-1042.0,-1090.0,-367.0,-307.0,7.0,252.0,-20.0,78.0,0.0,0.0,0.0,0.0,0.0,0.0,0.0,0.0,0
-1210.0,-1435.0,-462.0,-391.0,58.0,402.0,-6.0,62.0,0.0,0.0,0.0,0.0,0.0,0.0,0.0,0.0,0
-1217.0,-1675.0,-575.0,-486.0,94.0,542.0,-5.0,15.0,0.0,0.0,0.0,0.0,0.0,0.0,0.0,0.0,0
-1137.0,-1812.0,-671.0,-573.0,126.0,677.0,-6.0,-31.0,0.0,0.0,0.0,0.0,0.0,0.0,0.0,0.0,0
-1039.0,-1848.0,-727.0,-633.0,150.0,786.0,-7.0,-81.0,0.0,0.0,0.0,0.0,0.0,0.0,0.0,0.0,0
-883.0,-1873.0,-752.0,-687.0,166.0,866.0,-8.0,-120.0,0.0,0.0,0.0,0.0,0.0,0.0,0.0,0.0,0
-719.0,-1846.0,-748.0,-710.0,181.0,912.0,-5.0,-146.0,0.0,0.0,0.0,0.0,0.0,0.0,0.0,0.0,0
-548.0,-1772.0,-729.0,-717.0,188.0,937.0,-11.0,-176.0,0.0,0.0,0.0,0.0,0.0,0.0,0.0,0.0,0
-344.0,-1680.0,-702.0,-717.0,169.0,928.0,-25.0,-206.0,0.0,0.0,0.0,0.0,0.0,0.0,0.0,0.0,0
-207.0,-1614.0,-679.0,-706.0,153.0,885.0,-28.0,-202.0,0.0,0.0,0.0,0.0,0.0,0.0,0.0,0.0,0
-137.0,-1533.0,-641.0,-667.0,143.0,825.0,-22.0,-195.0,0.0,0.0,0.0,0.0,0.0,0.0,0.0,0.0,0
-93.0,-1442.0,-577.0,-602.0,127.0,751.0,-19.0,-174.0,0.0,0.0,0.0,0.0,0.0,0.0,0.0,0.0,0
-75.0,-1301.0,-480.0,-540.0,111.0,660.0,-11.0,-136.0,0.0,0.0,0.0,0.0,0.0,0.0,0.0,0.0,0
-82.0,-1130.0,-403.0,-463.0,89.0,554.0,-11.0,-102.0,0.0,0.0,0.0,0.0,0.0,0.0,0.0,0.0,0
-119.0,-979.0,-352.0,-395.0,65.0,447.0,-7.0,-81.0,0.0,0.0,0.0,0.0,0.0,0.0,0.0,0.0,0
-186.0,-812.0,-255.0,-318.0,41.0,344.0,-12.0,-64.0,0.0,0.0,0.0,0.0,0.0,0.0,0.0,0.0,0
-226.0,-613.0,-156.0,-236.0,25.0,255.0,-22.0,-47.0,0.0,0.0,0.0,0.0,0.0,0.0,0.0,0.0,0
-250.0,-461.0,-118.0,-178.0,8.0,172.0,-30.0,-30.0,0.0,0.0,0.0,0.0,0.0,0.0,0.0,0.0,0
-281.0,-330.0,-65.0,-114.0,9.0,104.0,-23.0,-21.0,0.0,0.0,0.0,0.0,0.0,0.0,0.0,0.0,0
-307.0,-208.0,0.0,-74.0,2.0,62.0,-20.0,4.0,0.0,0.0,0.0,0.0,0.0,0.0,0.0,0.0,0
-303.0,-109.0,34.0,-39.0,-9.0,17.0,-22.0,12.0,0.0,0.0,0.0,0.0,0.0,0.0,0.0,0.0,0
-256.0,-68.0,32.0,-17.0,-22.0,-11.0,-17.0,16.0,0.0,0.0,0.0,0.0,0.0,0.0,0.0,0.0,0
-251.0,-83.0,-22.0,-32.0,-38.0,-32.0,-19.0,28.0,0.0,0.0,0.0,0.0,0.0,0.0,0.0,0.0,0
-284.0,-115.0,-76.0,-44.0,-51.0,-50.0,-14.0,30.0,0.0,0.0,0.0,0.0,0.0,0.0,0.0,0.0,0
-278.0,-105.0,-71.0,-19.0,-41.0,-62.0,-19.0,15.0,0.0,0.0,0.0,0.0,0.0,0.0,0.0,0.0,0
-233.0,-60.0,-31.0,14.0,-25.0,-70.0,-26.0,-1.0,0.0,0.0,0.0,0.0,0.0,0.0,0.0,0.0,0
-169.0,7.0,-9.0,29.0,-36.0,-89.0,-23.0,-4.0,0.0,0.0,0.0,0.0,0.0,0.0,0.0,0.0,0
-58.0,102.0,16.0,39.0,-34.0,-109.0,-27.0,-10.0,0.0,0.0,0.0,0.0,0.0,0.0,0.0,0.0,0
19.0,185.0,46.0,62.0,-46.0,-143.0,-24.0,-4.0,0.0,0.0,0.0,0.0,0.0,0.0,0.0,0.0,0
54.0,266.0,82.0,84.0,-57.0,-181.0,-13.0,9.0,0.0,0.0,0.0,0.0,0.0,0.0,0.0,0.0,0
93.0,373.0,150.0,129.0,-51.0,-218.0,-17.0,18.0,0.0,0.0,0.0,0.0,0.0,0.0,0.0,0.0,0
115.0,467.0,196.0,180.0,-62.0,-257.0,-22.0,22.0,0.0,0.0,0.0,0.0,0.0,0.0,0.0,0.0,0
56.0,526.0,174.0,193.0,-89.0,-303.0,-29.0,27.0,0.0,0.0,0.0,0.0,0.0,0.0,0.0,0.0,0
5.0,577.0,167.0,188.0,-110.0,-336.0,-38.0,30.0,0.0,0.0,0.0,0.0,0.0,0.0,0.0,0.0,0
22.0,616.0,194.0,212.0,-119.0,-367.0,-39.0,30.0,0.0,0.0,0.0,0.0,0.0,0.0,0.0,0.0,0
31.0,666.0,246.0,244.0,-119.0,-388.0,-42.0,33.0,0.0,0.0,0.0,0.0,0.0,0.0,0.0,0.0,0
48.0,696.0,280.0,258.0,-114.0,-405.0,-54.0,39.0,0.0,0.0,0.0,0.0,0.0,0.0,0.0,0.0,0
55.0,708.0,318.0,271.0,-105.0,-413.0,-50.0,47.0,0.0,0.0,0.0,0.0,0.0,0.0,0.0,0.0,0
33.0,685.0,309.0,274.0,-90.0,-389.0,-39.0,52.0,0.0,0.0,0.0,0.0,0.0,0.0,0.0,0.0,0
9.0,625.0,213.0,194.0,-117.0,-367.0,-41.0,33.0,0.0,0.0,0.0,0.0,0.0,0.0,0.0,0.0,0
9.0,565.0,158.0,117.0,-132.0,-334.0,-49.0,16.0,0.0,0.0,0.0,0.0,0.0,0.0,0.0,0.0,0
35.0,488.0,115.0,63.0,-132.0,-279.0,-55.0,-8.0,0.0,0.0,0.0,0.0,0.0,0.0,0.0,0.0,0
49.0,382.0,67.0,27.0,-112.0,-226.0,-53.0,-38.0,0.0,0.0,0.0,0.0,0.0,0.0,0.0,0.0,0
72.0,259.0,19.0,-4.0,-98.0,-168.0,-53.0,-57.0,0.0,0.0,0.0,0.0,0.0,0.0,0.0,0.0,0
120.0,147.0,-12.0,-32.0,-78.0,-98.0,-54.0,-78.0,0.0,0.0,0.0,0.0,0.0,0.0,0.0,0.0,0
157.0,37.0,-52.0,-52.0,-54.0,-46.0,-49.0,-97.0,0.0,0.0,0.0,0.0,0.0,0.0,0.0,0.0,0
180.0,-66.0,-106.0,-86.0,-42.0,-9.0,-46.0,-112.0,0.0,0.0,0.0,0.0,0.0,0.0,0.0,0.0,0
208.0,-110.0,-125.0,-112.0,-31.0,21.0,-44.0,-113.0,0.0,0.0,0.0,0.0,0.0,0.0,0.0,0.0,0
232.0,-140.0,-111.0,-109.0,-21.0,40.0,-38.0,-111.0,0.0,0.0,0.0,0.0,0.0,0.0,0.0,0.0,0
218.0,-174.0,-82.0,-90.0,-14.0,48.0,-34.0,-89.0,0.0,0.0,0.0,0.0,0.0,0.0,0.0,0.0,0
204.0,-210.0,-63.0,-82.0,-21.0,39.0,-32.0,-72.0,0.0,0.0,0.0,0.0,0.0,0.0,0.0,0.0,0
157.0,-206.0,-67.0,-97.0,-33.0,11.0,-31.0,-49.0,0.0,0.0,0.0,0.0,0.0,0.0,0.0,0.0,0
24.0,-142.0,-58.0,-99.0,-47.0,-17.0,-28.0,-27.0,0.0,0.0,0.0,0.0,0.0,0.0,0.0,0.0,0
-50.0,-60.0,-37.0,-62.0,-49.0,-35.0,-25.0,-12.0,0.0,0.0,0.0,0.0,0.0,0.0,0.0,0.0,0
-40.0,10.0,-15.0,-28.0,-47.0,-49.0,-28.0,-11.0,0.0,0.0,0.0,0.0,0.0,0.0,0.0,0.0,0
2.0,60.0,-5.0,-5.0,-40.0,-62.0,-33.0,-15.0,0.0,0.0,0.0,0.0,0.0,0.0,0.0,0.0,0
50.0,72.0,-10.0,9.0,-31.0,-62.0,-35.0,-22.0,0.0,0.0,0.0,0.0,0.0,0.0,0.0,0.0,0
105.0,57.0,-11.0,20.0,-35.0,-55.0,-36.0,-28.0,0.0,0.0,0.0,0.0,0.0,0.0,0.0,0.0,0
115.0,45.0,-4.0,29.0,-31.0,-49.0,-34.0,-35.0,0.0,0.0,0.0,0.0,0.0,0.0,0.0,0.0,0
89.0,12.0,-2.0,10.0,-24.0,-21.0,-32.0,-49.0,0.0,0.0,0.0,0.0,0.0,0.0,0.0,0.0,0
53.0,-53.0,-16.0,-3.0,-29.0,2.0,-22.0,-47.0,0.0,0.0,0.0,0.0,0.0,0.0,0.0,0.0,0
26.0,-103.0,-35.0,-18.0,-22.0,24.0,-28.0,-50.0,0.0,0.0,0.0,0.0,0.0,0.0,0.0,0.0,0
4.0,-162.0,-49.0,-38.0,-12.0,52.0,-23.0,-55.0,0.0,0.0,0.0,0.0,0.0,0.0,0.0,0.0,0
-7.0,-234.0,-65.0,-66.0,-4.0,75.0,-19.0,-63.0,0.0,0.0,0.0,0.0,0.0,0.0,0.0,0.0,0
-7.0,-315.0,-94.0,-98.0,0.0,100.0,-15.0,-76.0,0.0,0.0,0.0,0.0,0.0,0.0,0.0,0.0,0
2.0,-356.0,-109.0,-115.0,-1.0,127.0,-18.0,-89.0,0.0,0.0,0.0,0.0,0.0,0.0,0.0,0.0,0
7.0,-344.0,-91.0,-132.0,-7.0,135.0,-24.0,-87.0,0.0,0.0,0.0,0.0,0.0,0.0,0.0,0.0,0
44.0,-296.0,-64.0,-136.0,-3.0,133.0,-27.0,-91.0,0.0,0.0,0.0,0.0,0.0,0.0,0.0,0.0,0
77.0,-267.0,-63.0,-151.0,-13.0,121.0,-32.0,-86.0,0.0,0.0,0.0,0.0,0.0,0.0,0.0,0.0,0
42.0,-281.0,-105.0,-169.0,-31.0,100.0,-33.0,-72.0,0.0,0.0,0.0,0.0,0.0,0.0,0.0,0.0,0
-1.0,-239.0,-117.0,-165.0,-38.0,69.0,-38.0,-63.0,0.0,0.0,0.0,0.0,0.0,0.0,0.0,0.0,0
9.0,-172.0,-103.0,-150.0,-43.0,34.0,-37.0,-47.0,0.0,0.0,0.0,0.0,0.0,0.0,0.0,0.0,0
5.0,-101.0,-92.0,-124.0,-46.0,-3.0,-39.0,-23.0,0.0,0.0,0.0,0.0,0.0,0.0,0.0,0.0,0
-51.0,-32.0,-77.0,-90.0,-51.0,-44.0,-45.0,-2.0,0.0,0.0,0.0,0.0,0.0,0.0,0.0,0.0,0
-97.0,20.0,-58.0,-61.0,-57.0,-76.0,-51.0,18.0,0.0,0.0,0.0,0.0,0.0,0.0,0.0,0.0,0
-119.0,65.0,-39.0,-39.0,-70.0,-107.0,-46.0,29.0,0.0,0.0,0.0,0.0,0.0,0.0,0.0,0.0,0
-169.0,90.0,-18.0,-16.0,-84.0,-133.0,-50.0,36.0,0.0,0.0,0.0,0.0,0.0,0.0,0.0,0.0,0
-221.0,113.0,-2.0,-8.0,-79.0,-148.0,-52.0,44.0,0.0,0.0,0.0,0.0,0.0,0.0,0.0,0.0,0
-229.0,174.0,21.0,13.0,-64.0,-144.0,-53.0,49.0,0.0,0.0,0.0,0.0,0.0,0.0,0.0,0.0,0
-269.0,193.0,26.0,27.0,-53.0,-135.0,-54.0,43.0,0.0,0.0,0.0,0.0,0.0,0.0,0.0,0.0,0
-326.0,142.0,-11.0,4.0,-61.0,-125.0,-58.0,28.0,0.0,0.0,0.0,0.0,0.0,0.0,0.0,0.0,0
-341.0,0.0,-37.0,-24.0,-62.0,-106.0,-62.0,7.0,0.0,0.0,0.0,0.0,0.0,0.0,0.0,0.0,0
-345.0,-65.0,-33.0,-20.0,-53.0,-72.0,-63.0,9.0,0.0,0.0,0.0,0.0,0.0,0.0,0.0,0.0,0
-314.0,-68.0,-32.0,-21.0,-24.0,-36.0,-45.0,-6.0,0.0,0.0,0.0,0.0,0.0,0.0,0.0,0.0,0
-246.0,-97.0,-43.0,-34.0,-16.0,-9.0,-38.0,-26.0,0.0,0.0,0.0,0.0,0.0,0.0,0.0,0.0,0
-185.0,-145.0,-54.0,-45.0,-20.0,16.0,-39.0,-44.0,0.0,0.0,0.0,0.0,0.0,0.0,0.0,0.0,0
-151.0,-181.0,-61.0,-50.0,-14.0,34.0,-34.0,-58.0,0.0,0.0,0.0,0.0,0.0,0.0,0.0,0.0,0
-82.0,-186.0,-74.0,-51.0,-2.0,43.0,-27.0,-70.0,0.0,0.0,0.0,0.0,0.0,0.0,0.0,0.0,0
-16.0,-178.0,-80.0,-59.0,-4.0,41.0,-27.0,-73.0,0.0,0.0,0.0,0.0,0.0,0.0,0.0,0.0,0
21.0,-161.0,-75.0,-49.0,-4.0,27.0,-20.0,-63.0,0.0,0.0,0.0,0.0,0.0,0.0,0.0,0.0,0
36.0,-117.0,-52.0,-37.0,-5.0,8.0,-19.0,-61.0,0.0,0.0,0.0,0.0,0.0,0.0,0.0,0.0,0
49.0,-73.0,-40.0,-22.0,-26.0,-17.0,-18.0,-59.0,0.0,0.0,0.0,0.0,0.0,0.0,0.0,0.0,0
61.0,-20.0,-15.0,10.0,-27.0,-47.0,-20.0,-41.0,0.0,0.0,0.0,0.0,0.0,0.0,0.0,0.0,0
83.0,41.0,26.0,59.0,-18.0,-76.0,-21.0,-22.0,0.0,0.0,0.0,0.0,0.0,0.0,0.0,0.0,0
81.0,111.0,86.0,98.0,-3.0,-93.0,-16.0,-12.0,0.0,0.0,0.0,0.0,0.0,0.0,0.0,0.0,0
59.0,151.0,81.0,95.0,-3.0,-106.0,-17.0,-5.0,0.0,0.0,0.0,0.0,0.0,0.0,0.0,0.0,0
34.0,161.0,60.0,64.0,-28.0,-121.0,-29.0,-8.0,0.0,0.0,0.0,0.0,0.0,0.0,0.0,0.0,0
46.0,164.0,43.0,58.0,-26.0,-133.0,-39.0,-9.0,0.0,0.0,0.0,0.0,0.0,0.0,0.0,0.0,0
20.0,165.0,28.0,44.0,-36.0,-131.0,-36.0,-5.0,0.0,0.0,0.0,0.0,0.0,0.0,0.0,0.0,0
-15.0,156.0,21.0,23.0,-43.0,-119.0,-35.0,-8.0,0.0,0.0,0.0,0.0,0.0,0.0,0.0,0.0,0
-40.0,121.0,17.0,-2.0,-41.0,-99.0,-35.0,-14.0,0.0,0.0,0.0,0.0,0.0,0.0,0.0,0.0,0
-44.0,74.0,9.0,-26.0,-39.0,-80.0,-33.0,-20.0,0.0,0.0,0.0,0.0,0.0,0.0,0.0,0.0,0
-60.0,18.0,-22.0,-57.0,-44.0,-61.0,-31.0,-31.0,0.0,0.0,0.0,0.0,0.0,0.0,0.0,0.0,0
-65.0,-52.0,-61.0,-90.0,-42.0,-44.0,-31.0,-50.0,0.0,0.0,0.0,0.0,0.0,0.0,0.0,0.0,0
-37.0,-103.0,-81.0,-113.0,-33.0,-9.0,-28.0,-70.0,0.0,0.0,0.0,0.0,0.0,0.0,0.0,0.0,0
3.0,-156.0,-94.0,-122.0,-31.0,20.0,-27.0,-87.0,0.0,0.0,0.0,0.0,0.0,0.0,0.0,0.0,0
25.0,-174.0,-99.0,-129.0,-16.0,33.0,-23.0,-91.0,0.0,0.0,0.0,0.0,0.0,0.0,0.0,0.0,0
52.0,-174.0,-93.0,-129.0,-6.0,47.0,-27.0,-98.0,0.0,0.0,0.0,0.0,0.0,0.0,0.0,0.0,0
81.0,-187.0,-97.0,-126.0,-10.0,47.0,-17.0,-101.0,0.0,0.0,0.0,0.0,0.0,0.0,0.0,0.0,0
72.0,-187.0,-105.0,-131.0,-19.0,32.0,-16.0,-94.0,0.0,0.0,0.0,0.0,0.0,0.0,0.0,0.0,0
76.0,-151.0,-98.0,-122.0,-27.0,18.0,-23.0,-83.0,0.0,0.0,0.0,0.0,0.0,0.0,0.0,0.0,0
94.0,-107.0,-100.0,-110.0,-33.0,-4.0,-27.0,-73.0,0.0,0.0,0.0,0.0,0.0,0.0,0.0,0.0,0
77.0,-48.0,-116.0,-105.0,-37.0,-19.0,-25.0,-58.0,0.0,0.0,0.0,0.0,0.0,0.0,0.0,0.0,0
60.0,14.0,-105.0,-90.0,-41.0,-40.0,-36.0,-43.0,0.0,0.0,0.0,0.0,0.0,0.0,0.0,0.0,0
26.0,20.0,-78.0,-59.0,-39.0,-59.0,-31.0,-28.0,0.0,0.0,0.0,0.0,0.0,0.0,0.0,0.0,0
-16.0,26.0,-29.0,-21.0,-30.0,-80.0,-35.0,-11.0,0.0,0.0,0.0,0.0,0.0,0.0,0.0,0.0,0
-28.0,71.0,22.0,34.0,-30.0,-86.0,-31.0,-4.0,0.0,0.0,0.0,0.0,0.0,0.0,0.0,0.0,0
-32.0,109.0,53.0,57.0,-15.0,-85.0,-32.0,1.0,0.0,0.0,0.0,0.0,0.0,0.0,0.0,0.0,0
-61.0,119.0,76.0,63.0,-15.0,-74.0,-31.0,14.0,0.0,0.0,0.0,0.0,0.0,0.0,0.0,0.0,0
-82.0,114.0,98.0,76.0,-2.0,-58.0,-29.0,16.0,0.0,0.0,0.0,0.0,0.0,0.0,0.0,0.0,0
-100.0,82.0,64.0,66.0,-5.0,-43.0,-29.0,3.0,0.0,0.0,0.0,0.0,0.0,0.0,0.0,0.0,0
-114.0,38.0,8.0,18.0,-9.0,-30.0,-32.0,-3.0,0.0,0.0,0.0,0.0,0.0,0.0,0.0,0.0,0
-141.0,-1.0,-31.0,-23.0,-16.0,-23.0,-35.0,-11.0,0.0,0.0,0.0,0.0,0.0,0.0,0.0,0.0,0
-131.0,-26.0,-49.0,-36.0,-28.0,7.0,-35.0,-33.0,0.0,0.0,0.0,0.0,0.0,0.0,0.0,0.0,0
-100.0,-71.0,-63.0,-63.0,-32.0,21.0,-34.0,-43.0,0.0,0.0,0.0,0.0,0.0,0.0,0.0,0.0,0
-67.0,-122.0,-75.0,-88.0,-44.0,31.0,-32.0,-52.0,0.0,0.0,0.0,0.0,0.0,0.0,0.0,0.0,0
-62.0,-163.0,-80.0,-87.0,-46.0,35.0,-30.0,-65.0,0.0,0.0,0.0,0.0,0.0,0.0,0.0,0.0,0
-40.0,-190.0,-67.0,-80.0,-35.0,49.0,-24.0,-81.0,0.0,0.0,0.0,0.0,0.0,0.0,0.0,0.0,0
5.0,-190.0,-60.0,-67.0,-24.0,54.0,-27.0,-78.0,0.0,0.0,0.0,0.0,0.0,0.0,0.0,0.0,0
22.0,-172.0,-55.0,-62.0,-27.0,45.0,-19.0,-66.0,0.0,0.0,0.0,0.0,0.0,0.0,0.0,0.0,0
26.0,-138.0,-63.0,-69.0,-40.0,34.0,-20.0,-64.0,0.0,0.0,0.0,0.0,0.0,0.0,0.0,0.0,0
35.0,-115.0,-84.0,-85.0,-46.0,8.0,-25.0,-51.0,0.0,0.0,0.0,0.0,0.0,0.0,0.0,0.0,0
16.0,-85.0,-94.0,-89.0,-58.0,-19.0,-30.0,-30.0,0.0,0.0,0.0,0.0,0.0,0.0,0.0,0.0,0
-10.0,-40.0,-87.0,-82.0,-76.0,-47.0,-34.0,-18.0,0.0,0.0,0.0,0.0,0.0,0.0,0.0,0.0,0
-40.0,-3.0,-57.0,-56.0,-83.0,-64.0,-36.0,-8.0,0.0,0.0,0.0,0.0,0.0,0.0,0.0,0.0,0
-57.0,39.0,2.0,-7.0,-77.0,-82.0,-36.0,6.0,0.0,0.0,0.0,0.0,0.0,0.0,0.0,0.0,0
-47.0,66.0,46.0,24.0,-72.0,-90.0,-41.0,9.0,0.0,0.0,0.0,0.0,0.0,0.0,0.0,0.0,0
-44.0,72.0,37.0,11.0,-85.0,-101.0,-41.0,8.0,0.0,0.0,0.0,0.0,0.0,0.0,0.0,0.0,0
-70.0,85.0,24.0,-5.0,-92.0,-105.0,-44.0,10.0,0.0,0.0,0.0,0.0,0.0,0.0,0.0,0.0,0
-83.0,93.0,35.0,-1.0,-78.0,-93.0,-49.0,3.0,0.0,0.0,0.0,0.0,0.0,0.0,0.0,0.0,0
-93.0,93.0,32.0,-7.0,-68.0,-82.0,-44.0,-5.0,0.0,0.0,0.0,0.0,0.0,0.0,0.0,0.0,0
-105.0,54.0,19.0,-20.0,-61.0,-75.0,-48.0,-20.0,0.0,0.0,0.0,0.0,0.0,0.0,0.0,0.0,0
-120.0,4.0,1.0,-20.0,-53.0,-58.0,-54.0,-27.0,0.0,0.0,0.0,0.0,0.0,0.0,0.0,0.0,0
-129.0,-66.0,-48.0,-48.0,-49.0,-31.0,-52.0,-38.0,0.0,0.0,0.0,0.0,0.0,0.0,0.0,0.0,0
-119.0,-123.0,-86.0,-69.0,-33.0,-10.0,-47.0,-58.0,0.0,0.0,0.0,0.0,0.0,0.0,0.0,0.0,0
-62.0,-162.0,-90.0,-58.0,-8.0,12.0,-43.0,-73.0,0.0,0.0,0.0,0.0,0.0,0.0,0.0,0.0,0
1.0,-172.0,-59.0,-41.0,6.0,28.0,-38.0,-76.0,0.0,0.0,0.0,0.0,0.0,0.0,0.0,0.0,0
38.0,-169.0,-55.0,-44.0,-1.0,29.0,-33.0,-86.0,0.0,0.0,0.0,0.0,0.0,0.0,0.0,0.0,0
50.0,-171.0,-63.0,-65.0,1.0,30.0,-26.0,-82.0,0.0,0.0,0.0,0.0,0.0,0.0,0.0,0.0,0
28.0,-150.0,-30.0,-54.0,10.0,25.0,-25.0,-78.0,0.0,0.0,0.0,0.0,0.0,0.0,0.0,0.0,0
12.0,-106.0,-39.0,-67.0,-2.0,8.0,-31.0,-81.0,0.0,0.0,0.0,0.0,0.0,0.0,0.0,0.0,0
32.0,-52.0,-59.0,-86.0,-19.0,-4.0,-29.0,-68.0,0.0,0.0,0.0,0.0,0.0,0.0,0.0,0.0,0
26.0,-25.0,-37.0,-72.0,-23.0,-30.0,-23.0,-50.0,0.0,0.0,0.0,0.0,0.0,0.0,0.0,0.0,0
6.0,5.0,-13.0,-41.0,-24.0,-49.0,-22.0,-33.0,0.0,0.0,0.0,0.0,0.0,0.0,0.0,0.0,0
-6.0,40.0,3.0,-21.0,-24.0,-63.0,-24.0,-18.0,0.0,0.0,0.0,0.0,0.0,0.0,0.0,0.0,0
-28.0,59.0,-6.0,-5.0,-36.0,-82.0,-25.0,-12.0,0.0,0.0,0.0,0.0,0.0,0.0,0.0,0.0,0
-42.0,72.0,-16.0,10.0,-39.0,-89.0,-17.0,-13.0,0.0,0.0,0.0,0.0,0.0,0.0,0.0,0.0,0
-73.0,43.0,-44.0,13.0,-48.0,-104.0,-23.0,-8.0,0.0,0.0,0.0,0.0,0.0,0.0,0.0,0.0,0
-105.0,-2.0,-61.0,-10.0,-67.0,-108.0,-33.0,-14.0,0.0,0.0,0.0,0.0,0.0,0.0,0.0,0.0,0
-84.0,3.0,-45.0,-31.0,-74.0,-104.0,-30.0,-19.0,0.0,0.0,0.0,0.0,0.0,0.0,0.0,0.0,0
-40.0,40.0,-34.0,-43.0,-76.0,-92.0,-33.0,-23.0,0.0,0.0,0.0,0.0,0.0,0.0,0.0,0.0,0
-30.0,49.0,-45.0,-50.0,-72.0,-78.0,-31.0,-27.0,0.0,0.0,0.0,0.0,0.0,0.0,0.0,0.0,0
-65.0,19.0,-53.0,-51.0,-52.0,-52.0,-32.0,-33.0,0.0,0.0,0.0,0.0,0.0,0.0,0.0,0.0,0
-93.0,-25.0,-57.0,-53.0,-36.0,-29.0,-26.0,-42.0,0.0,0.0,0.0,0.0,0.0,0.0,0.0,0.0,0
-83.0,-55.0,-56.0,-55.0,-33.0,-9.0,-22.0,-56.0,0.0,0.0,0.0,0.0,0.0,0.0,0.0,0.0,0
-37.0,-78.0,-62.0,-60.0,-24.0,5.0,-27.0,-68.0,0.0,0.0,0.0,0.0,0.0,0.0,0.0,0.0,0
-18.0,-98.0,-57.0,-67.0,-19.0,14.0,-22.0,-74.0,0.0,0.0,0.0,0.0,0.0,0.0,0.0,0.0,0
26.0,-107.0,-53.0,-58.0,-10.0,17.0,-24.0,-90.0,0.0,0.0,0.0,0.0,0.0,0.0,0.0,0.0,0
66.0,-108.0,-52.0,-42.0,8.0,20.0,-24.0,-97.0,0.0,0.0,0.0,0.0,0.0,0.0,0.0,0.0,0
49.0,-102.0,-38.0,-38.0,8.0,23.0,-24.0,-82.0,0.0,0.0,0.0,0.0,0.0,0.0,0.0,0.0,0
23.0,-82.0,-32.0,-28.0,-9.0,12.0,-26.0,-71.0,0.0,0.0,0.0,0.0,0.0,0.0,0.0,0.0,0
19.0,-70.0,-27.0,-21.0,-14.0,3.0,-32.0,-49.0,0.0,0.0,0.0,0.0,0.0,0.0,0.0,0.0,0
-10.0,-45.0,-24.0,-20.0,-19.0,-19.0,-34.0,-24.0,0.0,0.0,0.0,0.0,0.0,0.0,0.0,0.0,0
-40.0,-13.0,-30.0,-15.0,-29.0,-34.0,-32.0,-15.0,0.0,0.0,0.0,0.0,0.0,0.0,0.0,0.0,0
-39.0,23.0,-26.0,9.0,-34.0,-52.0,-41.0,4.0,0.0,0.0,0.0,0.0,0.0,0.0,0.0,0.0,0
-47.0,58.0,-9.0,15.0,-31.0,-65.0,-40.0,13.0,0.0,0.0,0.0,0.0,0.0,0.0,0.0,0.0,0
-52.0,75.0,10.0,34.0,-27.0,-70.0,-37.0,17.0,0.0,0.0,0.0,0.0,0.0,0.0,0.0,0.0,0
-39.0,81.0,27.0,44.0,-27.0,-78.0,-31.0,17.0,0.0,0.0,0.0,0.0,0.0,0.0,0.0,0.0,0
-37.0,80.0,21.0,39.0,-36.0,-83.0,-33.0,23.0,0.0,0.0,0.0,0.0,0.0,0.0,0.0,0.0,0
-62.0,69.0,32.0,25.0,-37.0,-85.0,-38.0,13.0,0.0,0.0,0.0,0.0,0.0,0.0,0.0,0.0,0
-84.0,48.0,42.0,31.0,-42.0,-79.0,-42.0,10.0,0.0,0.0,0.0,0.0,0.0,0.0,0.0,0.0,0
-93.0,10.0,30.0,16.0,-52.0,-71.0,-37.0,-1.0,0.0,0.0,0.0,0.0,0.0,0.0,0.0,0.0,0
-108.0,-17.0,8.0,-8.0,-45.0,-60.0,-42.0,-9.0,0.0,0.0,0.0,0.0,0.0,0.0,0.0,0.0,0
-111.0,-51.0,2.0,-16.0,-37.0,-41.0,-33.0,-21.0,0.0,0.0,0.0,0.0,0.0,0.0,0.0,0.0,0
-89.0,-76.0,3.0,-16.0,-25.0,-29.0,-28.0,-42.0,0.0,0.0,0.0,0.0,0.0,0.0,0.0,0.0,0
-46.0,-104.0,3.0,-24.0,-14.0,-6.0,-28.0,-60.0,0.0,0.0,0.0,0.0,0.0,0.0,0.0,0.0,0
-19.0,-127.0,-41.0,-46.0,-13.0,7.0,-32.0,-65.0,0.0,0.0,0.0,0.0,0.0,0.0,0.0,0.0,0
9.0,-127.0,-94.0,-72.0,-11.0,10.0,-22.0,-79.0,0.0,0.0,0.0,0.0,0.0,0.0,0.0,0.0,0
46.0,-141.0,-99.0,-75.0,-10.0,15.0,-28.0,-83.0,0.0,0.0,0.0,0.0,0.0,0.0,0.0,0.0,0
55.0,-129.0,-67.0,-82.0,-15.0,3.0,-31.0,-72.0,0.0,0.0,0.0,0.0,0.0,0.0,0.0,0.0,0
41.0,-114.0,-59.0,-83.0,-28.0,-8.0,-32.0,-68.0,0.0,0.0,0.0,0.0,0.0,0.0,0.0,0.0,0
17.0,-108.0,-49.0,-71.0,-21.0,-10.0,-36.0,-57.0,0.0,0.0,0.0,0.0,0.0,0.0,0.0,0.0,0
-25.0,-92.0,-34.0,-39.0,-10.0,-18.0,-37.0,-27.0,0.0,0.0,0.0,0.0,0.0,0.0,0.0,0.0,0
-46.0,-65.0,-38.0,-37.0,-17.0,-26.0,-38.0,-15.0,0.0,0.0,0.0,0.0,0.0,0.0,0.0,0.0,0
-44.0,-35.0,-42.0,-37.0,-30.0,-41.0,-44.0,-3.0,0.0,0.0,0.0,0.0,0.0,0.0,0.0,0.0,0
-29.0,1.0,-62.0,-52.0,-43.0,-61.0,-47.0,-3.0,0.0,0.0,0.0,0.0,0.0,0.0,0.0,0.0,0
7.0,32.0,-63.0,-54.0,-46.0,-71.0,-46.0,-4.0,0.0,0.0,0.0,0.0,0.0,0.0,0.0,0.0,0
21.0,49.0,-62.0,-55.0,-53.0,-78.0,-46.0,4.0,0.0,0.0,0.0,0.0,0.0,0.0,0.0,0.0,0
19.0,64.0,-59.0,-66.0,-66.0,-85.0,-65.0,8.0,0.0,0.0,0.0,0.0,0.0,0.0,0.0,0.0,0
2.0,64.0,-40.0,-67.0,-76.0,-92.0,-69.0,2.0,0.0,0.0,0.0,0.0,0.0,0.0,0.0,0.0,0
-55.0,37.0,-31.0,-80.0,-82.0,-88.0,-64.0,-2.0,0.0,0.0,0.0,0.0,0.0,0.0,0.0,0.0,0
-88.0,-5.0,-58.0,-91.0,-85.0,-76.0,-63.0,-15.0,0.0,0.0,0.0,0.0,0.0,0.0,0.0,0.0,0
-113.0,-43.0,-83.0,-107.0,-81.0,-61.0,-61.0,-24.0,0.0,0.0,0.0,0.0,0.0,0.0,0.0,0.0,0
-122.0,-78.0,-109.0,-110.0,-83.0,-40.0,-57.0,-31.0,0.0,0.0,0.0,0.0,0.0,0.0,0.0,0.0,0
-99.0,-92.0,-122.0,-120.0,-82.0,-29.0,-58.0,-51.0,0.0,0.0,0.0,0.0,0.0,0.0,0.0,0.0,0
-73.0,-107.0,-116.0,-115.0,-71.0,-21.0,-54.0,-62.0,0.0,0.0,0.0,0.0,0.0,0.0,0.0,0.0,0
-50.0,-130.0,-106.0,-107.0,-63.0,-10.0,-51.0,-68.0,0.0,0.0,0.0,0.0,0.0,0.0,0.0,0.0,0
-11.0,-129.0,-80.0,-78.0,-47.0,6.0,-48.0,-78.0,0.0,0.0,0.0,0.0,0.0,0.0,0.0,0.0,0
15.0,-130.0,-54.0,-57.0,-42.0,6.0,-38.0,-78.0,0.0,0.0,0.0,0.0,0.0,0.0,0.0,0.0,0
17.0,-115.0,-28.0,-33.0,-22.0,5.0,-37.0,-67.0,0.0,0.0,0.0,0.0,0.0,0.0,0.0,0.0,0
19.0,-81.0,18.0,1.0,-3.0,6.0,-33.0,-61.0,0.0,0.0,0.0,0.0,0.0,0.0,0.0,0.0,0
3.0,-75.0,11.0,9.0,7.0,-3.0,-35.0,-45.0,0.0,0.0,0.0,0.0,0.0,0.0,0.0,0.0,0
-40.0,-62.0,-27.0,1.0,-6.0,-9.0,-30.0,-27.0,0.0,0.0,0.0,0.0,0.0,0.0,0.0,0.0,0
-75.0,-32.0,-21.0,-6.0,-8.0,-20.0,-34.0,-5.0,0.0,0.0,0.0,0.0,0.0,0.0,0.0,0.0,0
-69.0,24.0,11.0,8.0,3.0,-36.0,-24.0,8.0,0.0,0.0,0.0,0.0,0.0,0.0,0.0,0.0,0
-54.0,66.0,21.0,24.0,6.0,-47.0,-31.0,14.0,0.0,0.0,0.0,0.0,0.0,0.0,0.0,0.0,0
-14.0,88.0,32.0,24.0,-3.0,-60.0,-37.0,12.0,0.0,0.0,0.0,0.0,0.0,0.0,0.0,0.0,0
13.0,124.0,45.0,27.0,-20.0,-66.0,-36.0,22.0,0.0,0.0,0.0,0.0,0.0,0.0,0.0,0.0,0
11.0,141.0,51.0,19.0,-24.0,-60.0,-34.0,20.0,0.0,0.0,0.0,0.0,0.0,0.0,0.0,0.0,0
-32.0,98.0,44.0,14.0,-30.0,-72.0,-41.0,11.0,0.0,0.0,0.0,0.0,0.0,0.0,0.0,0.0,0
-71.0,21.0,17.0,18.0,-19.0,-72.0,-51.0,-8.0,0.0,0.0,0.0,0.0,0.0,0.0,0.0,0.0,0
-72.0,-68.0,-28.0,28.0,-2.0,-63.0,-54.0,-23.0,0.0,0.0,0.0,0.0,0.0,0.0,0.0,0.0,0
-110.0,-129.0,-69.0,28.0,-2.0,-52.0,-46.0,-29.0,0.0,0.0,0.0,0.0,0.0,0.0,0.0,0.0,0
-144.0,-163.0,-80.0,30.0,1.0,-33.0,-36.0,-37.0,0.0,0.0,0.0,0.0,0.0,0.0,0.0,0.0,0
-122.0,-172.0,-90.0,22.0,7.0,-12.0,-33.0,-51.0,0.0,0.0,0.0,0.0,0.0,0.0,0.0,0.0,0
-87.0,-173.0,-130.0,-30.0,-5.0,6.0,-21.0,-57.0,0.0,0.0,0.0,0.0,0.0,0.0,0.0,0.0,0
-59.0,-122.0,-115.0,-56.0,-13.0,17.0,-21.0,-68.0,0.0,0.0,0.0,0.0,0.0,0.0,0.0,0.0,0
-15.0,-59.0,-74.0,-64.0,-23.0,22.0,-19.0,-81.0,0.0,0.0,0.0,0.0,0.0,0.0,0.0,0.0,0
56.0,-13.0,-40.0,-79.0,-35.0,17.0,-16.0,-74.0,0.0,0.0,0.0,0.0,0.0,0.0,0.0,0.0,0
120.0,11.0,-30.0,-86.0,-51.0,10.0,-13.0,-67.0,0.0,0.0,0.0,0.0,0.0,0.0,0.0,0.0,0
146.0,-16.0,-35.0,-76.0,-45.0,7.0,-12.0,-63.0,0.0,0.0,0.0,0.0,0.0,0.0,0.0,0.0,0
116.0,-55.0,-23.0,-58.0,-42.0,-3.0,-12.0,-60.0,0.0,0.0,0.0,0.0,0.0,0.0,0.0,0.0,0
14.0,-64.0,-6.0,-42.0,-37.0,-18.0,-13.0,-32.0,0.0,0.0,0.0,0.0,0.0,0.0,0.0,0.0,0
-70.0,-37.0,6.0,-31.0,-32.0,-27.0,-12.0,-16.0,0.0,0.0,0.0,0.0,0.0,0.0,0.0,0.0,0
-109.0,0.0,12.0,-15.0,-32.0,-34.0,-15.0,-4.0,0.0,0.0,0.0,0.0,0.0,0.0,0.0,0.0,0
-90.0,34.0,6.0,-13.0,-41.0,-44.0,-17.0,3.0,0.0,0.0,0.0,0.0,0.0,0.0,0.0,0.0,0
-48.0,58.0,6.0,-5.0,-34.0,-49.0,-19.0,4.0,0.0,0.0,0.0,0.0,0.0,0.0,0.0,0.0,0
-36.0,59.0,16.0,5.0,-28.0,-48.0,-12.0,11.0,0.0,0.0,0.0,0.0,0.0,0.0,0.0,0.0,0
-43.0,46.0,4.0,-5.0,-29.0,-60.0,-17.0,13.0,0.0,0.0,0.0,0.0,0.0,0.0,0.0,0.0,0
-64.0,40.0,-6.0,-15.0,-31.0,-65.0,-21.0,7.0,0.0,0.0,0.0,0.0,0.0,0.0,0.0,0.0,0
-75.0,26.0,-15.0,-20.0,-35.0,-57.0,-24.0,-2.0,0.0,0.0,0.0,0.0,0.0,0.0,0.0,0.0,0
-69.0,6.0,-14.0,-50.0,-48.0,-58.0,-24.0,-17.0,0.0,0.0,0.0,0.0,0.0,0.0,0.0,0.0,0
-64.0,-6.0,-10.0,-59.0,-47.0,-46.0,-34.0,-29.0,0.0,0.0,0.0,0.0,0.0,0.0,0.0,0.0,0
-63.0,9.0,-1.0,-64.0,-48.0,-36.0,-29.0,-44.0,0.0,0.0,0.0,0.0,0.0,0.0,0.0,0.0,0
-35.0,-2.0,-12.0,-68.0,-48.0,-24.0,-28.0,-61.0,0.0,0.0,0.0,0.0,0.0,0.0,0.0,0.0,0
-7.0,-39.0,-29.0,-65.0,-46.0,-13.0,-33.0,-80.0,0.0,0.0,0.0,0.0,0.0,0.0,0.0,0.0,0
-1.0,-68.0,-51.0,-62.0,-43.0,-8.0,-31.0,-82.0,0.0,0.0,0.0,0.0,0.0,0.0,0.0,0.0,0
14.0,-89.0,-60.0,-50.0,-36.0,5.0,-35.0,-88.0,0.0,0.0,0.0,0.0,0.0,0.0,0.0,0.0,0
34.0,-123.0,-76.0,-45.0,-36.0,6.0,-43.0,-90.0,0.0,0.0,0.0,0.0,0.0,0.0,0.0,0.0,0
18.0,-158.0,-110.0,-58.0,-51.0,-1.0,-46.0,-86.0,0.0,0.0,0.0,0.0,0.0,0.0,0.0,0.0,0
9.0,-141.0,-107.0,-59.0,-51.0,-9.0,-52.0,-84.0,0.0,0.0,0.0,0.0,0.0,0.0,0.0,0.0,0
21.0,-119.0,-95.0,-45.0,-49.0,-18.0,-49.0,-66.0,0.0,0.0,0.0,0.0,0.0,0.0,0.0,0.0,0
-2.0,-102.0,-96.0,-41.0,-51.0,-24.0,-44.0,-36.0,0.0,0.0,0.0,0.0,0.0,0.0,0.0,0.0,0
-37.0,-74.0,-93.0,-40.0,-64.0,-35.0,-45.0,-24.0,0.0,0.0,0.0,0.0,0.0,0.0,0.0,0.0,0
-50.0,-44.0,-69.0,-37.0,-62.0,-43.0,-42.0,-14.0,0.0,0.0,0.0,0.0,0.0,0.0,0.0,0.0,0
-47.0,-11.0,-27.0,-8.0,-55.0,-48.0,-37.0,-10.0,0.0,0.0,0.0,0.0,0.0,0.0,0.0,0.0,0
-31.0,4.0,3.0,25.0,-46.0,-50.0,-39.0,7.0,0.0,0.0,0.0,0.0,0.0,0.0,0.0,0.0,0
-19.0,9.0,-6.0,12.0,-40.0,-59.0,-41.0,12.0,0.0,0.0,0.0,0.0,0.0,0.0,0.0,0.0,0
-17.0,-1.0,-10.0,-9.0,-38.0,-67.0,-44.0,10.0,0.0,0.0,0.0,0.0,0.0,0.0,0.0,0.0,0
-17.0,2.0,24.0,12.0,-29.0,-57.0,-42.0,4.0,0.0,0.0,0.0,0.0,0.0,0.0,0.0,0.0,0
-52.0,-6.0,22.0,6.0,-15.0,-46.0,-40.0,-2.0,0.0,0.0,0.0,0.0,0.0,0.0,0.0,0.0,0
-89.0,-34.0,-11.0,-18.0,-18.0,-46.0,-33.0,-11.0,0.0,0.0,0.0,0.0,0.0,0.0,0.0,0.0,0
-111.0,-55.0,-36.0,-37.0,-22.0,-40.0,-35.0,-20.0,0.0,0.0,0.0,0.0,0.0,0.0,0.0,0.0,0
-95.0,-63.0,-49.0,-47.0,-24.0,-26.0,-40.0,-32.0,0.0,0.0,0.0,0.0,0.0,0.0,0.0,0.0,0
-69.0,-50.0,-49.0,-44.0,-17.0,-25.0,-41.0,-51.0,0.0,0.0,0.0,0.0,0.0,0.0,0.0,0.0,0
-47.0,-40.0,-19.0,-23.0,-2.0,-28.0,-34.0,-58.0,0.0,0.0,0.0,0.0,0.0,0.0,0.0,0.0,0
-35.0,-28.0,24.0,-6.0,-2.0,-14.0,-30.0,-68.0,0.0,0.0,0.0,0.0,0.0,0.0,0.0,0.0,0
-27.0,-48.0,-5.0,-21.0,-13.0,-16.0,-45.0,-81.0,0.0,0.0,0.0,0.0,0.0,0.0,0.0,0.0,0
-9.0,-102.0,-49.0,-32.0,-26.0,-25.0,-49.0,-85.0,0.0,0.0,0.0,0.0,0.0,0.0,0.0,0.0,0
-20.0,-119.0,-64.0,-35.0,-30.0,-20.0,-43.0,-76.0,0.0,0.0,0.0,0.0,0.0,0.0,0.0,0.0,0
-25.0,-97.0,-62.0,-30.0,-30.0,-21.0,-33.0,-63.0,0.0,0.0,0.0,0.0,0.0,0.0,0.0,0.0,0
-21.0,-93.0,-71.0,-24.0,-40.0,-25.0,-29.0,-45.0,0.0,0.0,0.0,0.0,0.0,0.0,0.0,0.0,0
-61.0,-100.0,-70.0,-36.0,-47.0,-36.0,-35.0,-29.0,0.0,0.0,0.0,0.0,0.0,0.0,0.0,0.0,0
-74.0,-62.0,-66.0,-43.0,-65.0,-48.0,-35.0,-18.0,0.0,0.0,0.0,0.0,0.0,0.0,0.0,0.0,0
-77.0,-36.0,-68.0,-44.0,-69.0,-60.0,-39.0,-8.0,0.0,0.0,0.0,0.0,0.0,0.0,0.0,0.0,0
-80.0,-9.0,-67.0,-44.0,-71.0,-63.0,-41.0,0.0,0.0,0.0,0.0,0.0,0.0,0.0,0.0,0.0,0
-49.0,16.0,-67.0,-44.0,-76.0,-82.0,-39.0,4.0,0.0,0.0,0.0,0.0,0.0,0.0,0.0,0.0,0
-16.0,28.0,-59.0,-43.0,-67.0,-78.0,-31.0,16.0,0.0,0.0,0.0,0.0,0.0,0.0,0.0,0.0,0
-27.0,36.0,-45.0,-24.0,-42.0,-69.0,-24.0,15.0,0.0,0.0,0.0,0.0,0.0,0.0,0.0,0.0,0
-61.0,12.0,-64.0,-36.0,-37.0,-68.0,-33.0,0.0,0.0,0.0,0.0,0.0,0.0,0.0,0.0,0.0,0
-68.0,-2.0,-70.0,-51.0,-31.0,-72.0,-31.0,-9.0,0.0,0.0,0.0,0.0,0.0,0.0,0.0,0.0,0
-35.0,-8.0,-71.0,-74.0,-38.0,-64.0,-25.0,-23.0,0.0,0.0,0.0,0.0,0.0,0.0,0.0,0.0,0
-28.0,-14.0,-67.0,-81.0,-30.0,-50.0,-25.0,-32.0,0.0,0.0,0.0,0.0,0.0,0.0,0.0,0.0,0
-43.0,-3.0,-42.0,-72.0,-22.0,-40.0,-19.0,-44.0,0.0,0.0,0.0,0.0,0.0,0.0,0.0,0.0,0
-34.0,-2.0,-20.0,-66.0,-23.0,-35.0,-18.0,-62.0,0.0,0.0,0.0,0.0,0.0,0.0,0.0,0.0,0
-27.0,-22.0,-18.0,-74.0,-23.0,-24.0,-21.0,-69.0,0.0,0.0,0.0,0.0,0.0,0.0,0.0,0.0,0
-15.0,-44.0,-34.0,-81.0,-27.0,-11.0,-25.0,-78.0,0.0,0.0,0.0,0.0,0.0,0.0,0.0,0.0,0
7.0,-42.0,-37.0,-83.0,-28.0,-4.0,-24.0,-92.0,0.0,0.0,0.0,0.0,0.0,0.0,0.0,0.0,0
35.0,-42.0,-33.0,-73.0,-28.0,-4.0,-19.0,-94.0,0.0,0.0,0.0,0.0,0.0,0.0,0.0,0.0,0
18.0,-50.0,-18.0,-67.0,-22.0,-8.0,-26.0,-86.0,0.0,0.0,0.0,0.0,0.0,0.0,0.0,0.0,0
0.0,-59.0,-12.0,-47.0,-13.0,-1.0,-34.0,-83.0,0.0,0.0,0.0,0.0,0.0,0.0,0.0,0.0,0
-2.0,-100.0,-14.0,-30.0,-20.0,-8.0,-34.0,-71.0,0.0,0.0,0.0,0.0,0.0,0.0,0.0,0.0,0
-48.0,-109.0,-28.0,-17.0,-32.0,-24.0,-32.0,-52.0,0.0,0.0,0.0,0.0,0.0,0.0,0.0,0.0,0
-69.0,-61.0,-13.0,-6.0,-41.0,-32.0,-41.0,-32.0,0.0,0.0,0.0,0.0,0.0,0.0,0.0,0.0,0
-64.0,-10.0,-13.0,13.0,-36.0,-27.0,-36.0,-18.0,0.0,0.0,0.0,0.0,0.0,0.0,0.0,0.0,0
-72.0,3.0,-34.0,16.0,-35.0,-35.0,-34.0,-11.0,0.0,0.0,0.0,0.0,0.0,0.0,0.0,0.0,0
-79.0,7.0,-23.0,5.0,-37.0,-45.0,-39.0,-15.0,0.0,0.0,0.0,0.0,0.0,0.0,0.0,0.0,0
-65.0,23.0,-12.0,12.0,-25.0,-47.0,-31.0,-15.0,0.0,0.0,0.0,0.0,0.0,0.0,0.0,0.0,0
-63.0,44.0,0.0,26.0,-8.0,-43.0,-24.0,-6.0,0.0,0.0,0.0,0.0,0.0,0.0,0.0,0.0,0
-66.0,41.0,1.0,35.0,-7.0,-47.0,-30.0,0.0,0.0,0.0,0.0,0.0,0.0,0.0,0.0,0.0,0
-61.0,30.0,-3.0,33.0,10.0,-44.0,-31.0,-8.0,0.0,0.0,0.0,0.0,0.0,0.0,0.0,0.0,0
-48.0,6.0,-6.0,31.0,18.0,-40.0,-26.0,-15.0,0.0,0.0,0.0,0.0,0.0,0.0,0.0,0.0,0
-48.0,-12.0,2.0,7.0,15.0,-35.0,-22.0,-29.0,0.0,0.0,0.0,0.0,0.0,0.0,0.0,0.0,0
-52.0,-26.0,27.0,-9.0,15.0,-28.0,-16.0,-40.0,0.0,0.0,0.0,0.0,0.0,0.0,0.0,0.0,0
-60.0,-47.0,26.0,-19.0,9.0,-14.0,-17.0,-54.0,0.0,0.0,0.0,0.0,0.0,0.0,0.0,0.0,0
-49.0,-72.0,-7.0,-44.0,-3.0,-13.0,-22.0,-69.0,0.0,0.0,0.0,0.0,0.0,0.0,0.0,0.0,0
-43.0,-81.0,-51.0,-66.0,-21.0,-7.0,-26.0,-74.0,0.0,0.0,0.0,0.0,0.0,0.0,0.0,0.0,0
-23.0,-78.0,-75.0,-86.0,-42.0,-2.0,-34.0,-86.0,0.0,0.0,0.0,0.0,0.0,0.0,0.0,0.0,0
-1.0,-73.0,-78.0,-96.0,-54.0,-9.0,-36.0,-94.0,0.0,0.0,0.0,0.0,0.0,0.0,0.0,0.0,0
0.0,-76.0,-76.0,-93.0,-65.0,-8.0,-45.0,-82.0,0.0,0.0,0.0,0.0,0.0,0.0,0.0,0.0,0
10.0,-53.0,-69.0,-85.0,-70.0,-11.0,-44.0,-70.0,0.0,0.0,0.0,0.0,0.0,0.0,0.0,0.0,0
50.0,-25.0,-47.0,-68.0,-75.0,-19.0,-41.0,-56.0,0.0,0.0,0.0,0.0,0.0,0.0,0.0,0.0,0
45.0,2.0,-34.0,-59.0,-81.0,-26.0,-45.0,-36.0,0.0,0.0,0.0,0.0,0.0,0.0,0.0,0.0,0
7.0,0.0,-44.0,-52.0,-83.0,-24.0,-44.0,-17.0,0.0,0.0,0.0,0.0,0.0,0.0,0.0,0.0,0
-31.0,-25.0,-64.0,-42.0,-77.0,-25.0,-39.0,-1.0,0.0,0.0,0.0,0.0,0.0,0.0,0.0,0.0,0
-51.0,-21.0,-45.0,-27.0,-70.0,-28.0,-38.0,7.0,0.0,0.0,0.0,0.0,0.0,0.0,0.0,0.0,0
-50.0,-14.0,-29.0,-5.0,-64.0,-31.0,-33.0,14.0,0.0,0.0,0.0,0.0,0.0,0.0,0.0,0.0,0
-62.0,-10.0,-23.0,20.0,-59.0,-38.0,-33.0,9.0,0.0,0.0,0.0,0.0,0.0,0.0,0.0,0.0,0
-79.0,-10.0,-23.0,25.0,-52.0,-37.0,-35.0,10.0,0.0,0.0,0.0,0.0,0.0,0.0,0.0,0.0,0
-70.0,-10.0,-16.0,24.0,-49.0,-48.0,-27.0,10.0,0.0,0.0,0.0,0.0,0.0,0.0,0.0,0.0,0
-64.0,-3.0,-6.0,29.0,-37.0,-50.0,-26.0,-1.0,0.0,0.0,0.0,0.0,0.0,0.0,0.0,0.0,0
-67.0,-4.0,-12.0,35.0,-29.0,-38.0,-21.0,-7.0,0.0,0.0,0.0,0.0,0.0,0.0,0.0,0.0,0
-85.0,-20.0,-27.0,15.0,-28.0,-41.0,-16.0,-17.0,0.0,0.0,0.0,0.0,0.0,0.0,0.0,0.0,0
-87.0,-37.0,-51.0,-7.0,-11.0,-41.0,-19.0,-36.0,0.0,0.0,0.0,0.0,0.0,0.0,0.0,0.0,0
-74.0,-57.0,-68.0,-21.0,-6.0,-37.0,-25.0,-53.0,0.0,0.0,0.0,0.0,0.0,0.0,0.0,0.0,0
-51.0,-73.0,-79.0,-41.0,1.0,-30.0,-25.0,-59.0,0.0,0.0,0.0,0.0,0.0,0.0,0.0,0.0,0
-52.0,-81.0,-92.0,-63.0,-12.0,-31.0,-26.0,-73.0,0.0,0.0,0.0,0.0,0.0,0.0,0.0,0.0,0
-43.0,-101.0,-108.0,-86.0,-29.0,-25.0,-38.0,-72.0,0.0,0.0,0.0,0.0,0.0,0.0,0.0,0.0,0
-20.0,-119.0,-97.0,-78.0,-29.0,-27.0,-50.0,-73.0,0.0,0.0,0.0,0.0,0.0,0.0,0.0,0.0,0
-21.0,-115.0,-80.0,-70.0,-22.0,-29.0,-48.0,-63.0,0.0,0.0,0.0,0.0,0.0,0.0,0.0,0.0,0
-24.0,-94.0,-70.0,-52.0,-29.0,-18.0,-40.0,-57.0,0.0,0.0,0.0,0.0,0.0,0.0,0.0,0.0,0
-20.0,-79.0,-62.0,-39.0,-38.0,-20.0,-53.0,-49.0,0.0,0.0,0.0,0.0,0.0,0.0,0.0,0.0,0
-23.0,-66.0,-52.0,-39.0,-51.0,-33.0,-58.0,-31.0,0.0,0.0,0.0,0.0,0.0,0.0,0.0,0.0,0
-22.0,-42.0,-33.0,-31.0,-54.0,-31.0,-54.0,-15.0,0.0,0.0,0.0,0.0,0.0,0.0,0.0,0.0,0
1.0,-11.0,-21.0,-26.0,-51.0,-36.0,-51.0,-9.0,0.0,0.0,0.0,0.0,0.0,0.0,0.0,0.0,0
16.0,11.0,-20.0,-30.0,-54.0,-43.0,-53.0,8.0,0.0,0.0,0.0,0.0,0.0,0.0,0.0,0.0,0
13.0,28.0,-27.0,-42.0,-68.0,-60.0,-51.0,7.0,0.0,0.0,0.0,0.0,0.0,0.0,0.0,0.0,0
-4.0,17.0,-39.0,-53.0,-73.0,-71.0,-53.0,9.0,0.0,0.0,0.0,0.0,0.0,0.0,0.0,0.0,0
-47.0,3.0,-44.0,-63.0,-66.0,-75.0,-50.0,11.0,0.0,0.0,0.0,0.0,0.0,0.0,0.0,0.0,0
-55.0,-12.0,-40.0,-64.0,-56.0,-71.0,-48.0,4.0,0.0,0.0,0.0,0.0,0.0,0.0,0.0,0.0,0
-59.0,-30.0,-77.0,-64.0,-46.0,-66.0,-41.0,2.0,0.0,0.0,0.0,0.0,0.0,0.0,0.0,0.0,0
-64.0,-42.0,-88.0,-73.0,-33.0,-61.0,-35.0,-3.0,0.0,0.0,0.0,0.0,0.0,0.0,0.0,0.0,0
-80.0,-55.0,-76.0,-53.0,-14.0,-51.0,-30.0,-8.0,0.0,0.0,0.0,0.0,0.0,0.0,0.0,0.0,0
-80.0,-56.0,-5.0,-1.0,5.0,-35.0,-28.0,-24.0,0.0,0.0,0.0,0.0,0.0,0.0,0.0,0.0,0
-67.0,-53.0,65.0,23.0,1.0,-34.0,-40.0,-50.0,0.0,0.0,0.0,0.0,0.0,0.0,0.0,0.0,0
-61.0,-56.0,47.0,-24.0,-13.0,-35.0,-42.0,-65.0,0.0,0.0,0.0,0.0,0.0,0.0,0.0,0.0,0
-56.0,-29.0,37.0,-49.0,-14.0,-24.0,-37.0,-69.0,0.0,0.0,0.0,0.0,0.0,0.0,0.0,0.0,0
-26.0,-11.0,56.0,-37.0,-2.0,-10.0,-35.0,-79.0,0.0,0.0,0.0,0.0,0.0,0.0,0.0,0.0,0
12.0,-22.0,48.0,-17.0,7.0,-7.0,-35.0,-83.0,0.0,0.0,0.0,0.0,0.0,0.0,0.0,0.0,0
5.0,-38.0,35.0,2.0,5.0,-5.0,-37.0,-69.0,0.0,0.0,0.0,0.0,0.0,0.0,0.0,0.0,0
-14.0,-44.0,17.0,3.0,-2.0,-9.0,-41.0,-63.0,0.0,0.0,0.0,0.0,0.0,0.0,0.0,0.0,0
-12.0,-44.0,-1.0,-14.0,-22.0,-9.0,-51.0,-54.0,0.0,0.0,0.0,0.0,0.0,0.0,0.0,0.0,0
-31.0,-51.0,-24.0,-20.0,-31.0,-12.0,-50.0,-34.0,0.0,0.0,0.0,0.0,0.0,0.0,0.0,0.0,0
-42.0,-43.0,-23.0,-9.0,-28.0,-7.0,-50.0,-21.0,0.0,0.0,0.0,0.0,0.0,0.0,0.0,0.0,0
-40.0,-8.0,32.0,8.0,-10.0,-1.0,-45.0,-14.0,0.0,0.0,0.0,0.0,0.0,0.0,0.0,0.0,0
-32.0,27.0,89.0,37.0,8.0,3.0,-41.0,-1.0,0.0,0.0,0.0,0.0,0.0,0.0,0.0,0.0,0
-16.0,30.0,60.0,15.0,-9.0,-5.0,-43.0,7.0,0.0,0.0,0.0,0.0,0.0,0.0,0.0,0.0,0
-12.0,5.0,-19.0,-21.0,-29.0,-26.0,-51.0,6.0,0.0,0.0,0.0,0.0,0.0,0.0,0.0,0.0,0
-49.0,-32.0,-103.0,-50.0,-37.0,-42.0,-41.0,3.0,0.0,0.0,0.0,0.0,0.0,0.0,0.0,0.0,0
-70.0,-42.0,-126.0,-77.0,-48.0,-50.0,-44.0,-5.0,0.0,0.0,0.0,0.0,0.0,0.0,0.0,0.0,0
-62.0,-32.0,-96.0,-83.0,-50.0,-57.0,-46.0,-19.0,0.0,0.0,0.0,0.0,0.0,0.0,0.0,0.0,0
-50.0,-15.0,-72.0,-82.0,-50.0,-55.0,-48.0,-26.0,0.0,0.0,0.0,0.0,0.0,0.0,0.0,0.0,0
-64.0,-12.0,-69.0,-84.0,-49.0,-56.0,-49.0,-25.0,0.0,0.0,0.0,0.0,0.0,0.0,0.0,0.0,0
-75.0,-19.0,-76.0,-89.0,-46.0,-60.0,-49.0,-50.0,0.0,0.0,0.0,0.0,0.0,0.0,0.0,0.0,0
-59.0,-27.0,-83.0,-95.0,-46.0,-59.0,-52.0,-63.0,0.0,0.0,0.0,0.0,0.0,0.0,0.0,0.0,0
-44.0,-47.0,-94.0,-92.0,-47.0,-56.0,-55.0,-69.0,0.0,0.0,0.0,0.0,0.0,0.0,0.0,0.0,0
-40.0,-62.0,-99.0,-84.0,-46.0,-48.0,-54.0,-68.0,0.0,0.0,0.0,0.0,0.0,0.0,0.0,0.0,0
-20.0,-61.0,-103.0,-86.0,-46.0,-39.0,-54.0,-73.0,0.0,0.0,0.0,0.0,0.0,0.0,0.0,0.0,0
11.0,-58.0,-104.0,-85.0,-40.0,-36.0,-57.0,-76.0,0.0,0.0,0.0,0.0,0.0,0.0,0.0,0.0,0
13.0,-58.0,-88.0,-71.0,-34.0,-38.0,-52.0,-71.0,0.0,0.0,0.0,0.0,0.0,0.0,0.0,0.0,0
12.0,-52.0,-62.0,-54.0,-34.0,-31.0,-47.0,-61.0,0.0,0.0,0.0,0.0,0.0,0.0,0.0,0.0,0
18.0,-56.0,-35.0,-33.0,-33.0,-32.0,-44.0,-50.0,0.0,0.0,0.0,0.0,0.0,0.0,0.0,0.0,0
-14.0,-35.0,22.0,-7.0,-24.0,-31.0,-34.0,-32.0,0.0,0.0,0.0,0.0,0.0,0.0,0.0,0.0,0
-24.0,-6.0,56.0,12.0,-19.0,-25.0,-26.0,-11.0,0.0,0.0,0.0,0.0,0.0,0.0,0.0,0.0,0
-39.0,-11.0,43.0,11.0,-22.0,-27.0,-19.0,13.0,0.0,0.0,0.0,0.0,0.0,0.0,0.0,0.0,0
-54.0,-20.0,30.0,16.0,-22.0,-26.0,-15.0,19.0,0.0,0.0,0.0,0.0,0.0,0.0,0.0,0.0,0
-50.0,-44.0,-7.0,19.0,-24.0,-39.0,-22.0,10.0,0.0,0.0,0.0,0.0,0.0,0.0,0.0,0.0,0
-40.0,-60.0,-20.0,20.0,-29.0,-52.0,-24.0,12.0,0.0,0.0,0.0,0.0,0.0,0.0,0.0,0.0,0
-49.0,-59.0,-39.0,22.0,-18.0,-46.0,-27.0,17.0,0.0,0.0,0.0,0.0,0.0,0.0,0.0,0.0,0
-60.0,-58.0,-70.0,30.0,-8.0,-41.0,-20.0,12.0,0.0,0.0,0.0,0.0,0.0,0.0,0.0,0.0,0
-62.0,-43.0,-78.0,18.0,-11.0,-45.0,-14.0,12.0,0.0,0.0,0.0,0.0,0.0,0.0,0.0,0.0,0
-63.0,-37.0,-71.0,-9.0,-17.0,-46.0,-25.0,1.0,0.0,0.0,0.0,0.0,0.0,0.0,0.0,0.0,0
-75.0,-30.0,-55.0,-35.0,-36.0,-47.0,-37.0,-15.0,0.0,0.0,0.0,0.0,0.0,0.0,0.0,0.0,0
-74.0,-24.0,-41.0,-55.0,-40.0,-49.0,-36.0,-29.0,0.0,0.0,0.0,0.0,0.0,0.0,0.0,0.0,0
-36.0,-18.0,-30.0,-59.0,-47.0,-47.0,-38.0,-46.0,0.0,0.0,0.0,0.0,0.0,0.0,0.0,0.0,0
-5.0,-31.0,-18.0,-67.0,-55.0,-40.0,-47.0,-58.0,0.0,0.0,0.0,0.0,0.0,0.0,0.0,0.0,0
-2.0,-46.0,-20.0,-76.0,-55.0,-41.0,-50.0,-69.0,0.0,0.0,0.0,0.0,0.0,0.0,0.0,0.0,0
4.0,-45.0,-33.0,-75.0,-55.0,-34.0,-49.0,-83.0,0.0,0.0,0.0,0.0,0.0,0.0,0.0,0.0,0
13.0,-54.0,-40.0,-77.0,-58.0,-30.0,-49.0,-80.0,0.0,0.0,0.0,0.0,0.0,0.0,0.0,0.0,0
13.0,-44.0,-31.0,-82.0,-72.0,-28.0,-42.0,-76.0,0.0,0.0,0.0,0.0,0.0,0.0,0.0,0.0,0
17.0,-45.0,-43.0,-79.0,-66.0,-32.0,-46.0,-79.0,0.0,0.0,0.0,0.0,0.0,0.0,0.0,0.0,0
19.0,-56.0,-45.0,-55.0,-52.0,-29.0,-39.0,-67.0,0.0,0.0,0.0,0.0,0.0,0.0,0.0,0.0,0
-16.0,-57.0,-39.0,-37.0,-39.0,-29.0,-38.0,-42.0,0.0,0.0,0.0,0.0,0.0,0.0,0.0,0.0,0
-28.0,-33.0,-21.0,-23.0,-38.0,-32.0,-41.0,-29.0,0.0,0.0,0.0,0.0,0.0,0.0,0.0,0.0,0
-21.0,-10.0,-10.0,-16.0,-41.0,-39.0,-39.0,-29.0,0.0,0.0,0.0,0.0,0.0,0.0,0.0,0.0,0
-40.0,-11.0,-26.0,-25.0,-47.0,-46.0,-37.0,-16.0,0.0,0.0,0.0,0.0,0.0,0.0,0.0,0.0,0
-40.0,-20.0,-44.0,-30.0,-44.0,-47.0,-40.0,-12.0,0.0,0.0,0.0,0.0,0.0,0.0,0.0,0.0,0
-40.0,-27.0,-50.0,-49.0,-47.0,-43.0,-39.0,-10.0,0.0,0.0,0.0,0.0,0.0,0.0,0.0,0.0,0
-55.0,-20.0,-58.0,-55.0,-46.0,-43.0,-31.0,-6.0,0.0,0.0,0.0,0.0,0.0,0.0,0.0,0.0,0
-70.0,-14.0,-66.0,-68.0,-44.0,-44.0,-29.0,-8.0,0.0,0.0,0.0,0.0,0.0,0.0,0.0,0.0,0
-78.0,-9.0,-54.0,-64.0,-33.0,-46.0,-30.0,-12.0,0.0,0.0,0.0,0.0,0.0,0.0,0.0,0.0,0
-55.0,-20.0,-18.0,-44.0,-30.0,-53.0,-36.0,-28.0,0.0,0.0,0.0,0.0,0.0,0.0,0.0,0.0,0
-40.0,-25.0,20.0,-14.0,-27.0,-53.0,-34.0,-34.0,0.0,0.0,0.0,0.0,0.0,0.0,0.0,0.0,0
-31.0,-24.0,16.0,6.0,-11.0,-39.0,-38.0,-53.0,0.0,0.0,0.0,0.0,0.0,0.0,0.0,0.0,0
-22.0,-38.0,-15.0,-4.0,-5.0,-28.0,-40.0,-67.0,0.0,0.0,0.0,0.0,0.0,0.0,0.0,0.0,0
-32.0,-67.0,-47.0,-27.0,-5.0,-16.0,-37.0,-73.0,0.0,0.0,0.0,0.0,0.0,0.0,0.0,0.0,0
-45.0,-72.0,-59.0,-30.0,-10.0,-11.0,-32.0,-77.0,0.0,0.0,0.0,0.0,0.0,0.0,0.0,0.0,0
-30.0,-82.0,-78.0,-33.0,-8.0,-11.0,-30.0,-82.0,0.0,0.0,0.0,0.0,0.0,0.0,0.0,0.0,0
-22.0,-99.0,-64.0,-43.0,-21.0,-15.0,-32.0,-84.0,0.0,0.0,0.0,0.0,0.0,0.0,0.0,0.0,0
-21.0,-72.0,-38.0,-47.0,-36.0,-23.0,-40.0,-86.0,0.0,0.0,0.0,0.0,0.0,0.0,0.0,0.0,0
-14.0,-32.0,-8.0,-38.0,-26.0,-29.0,-40.0,-74.0,0.0,0.0,0.0,0.0,0.0,0.0,0.0,0.0,0
27.0,-11.0,54.0,4.0,-20.0,-27.0,-37.0,-53.0,0.0,0.0,0.0,0.0,0.0,0.0,0.0,0.0,0
13.0,-13.0,50.0,11.0,-23.0,-34.0,-36.0,-37.0,0.0,0.0,0.0,0.0,0.0,0.0,0.0,0.0,0
-48.0,-21.0,-21.0,-24.0,-41.0,-45.0,-39.0,-21.0,0.0,0.0,0.0,0.0,0.0,0.0,0.0,0.0,0
-67.0,-20.0,-52.0,-33.0,-53.0,-44.0,-31.0,-11.0,0.0,0.0,0.0,0.0,0.0,0.0,0.0,0.0,0
-64.0,-19.0,-62.0,-19.0,-41.0,-40.0,-25.0,5.0,0.0,0.0,0.0,0.0,0.0,0.0,0.0,0.0,0
-67.0,-21.0,-72.0,-30.0,-40.0,-46.0,-26.0,7.0,0.0,0.0,0.0,0.0,0.0,0.0,0.0,0.0,0
-63.0,-8.0,-49.0,-38.0,-46.0,-38.0,-20.0,11.0,0.0,0.0,0.0,0.0,0.0,0.0,0.0,0.0,0
-56.0,2.0,9.0,-24.0,-44.0,-43.0,-15.0,20.0,0.0,0.0,0.0,0.0,0.0,0.0,0.0,0.0,0
-50.0,8.0,18.0,-27.0,-55.0,-48.0,-17.0,15.0,0.0,0.0,0.0,0.0,0.0,0.0,0.0,0.0,0
-68.0,-6.0,-32.0,-55.0,-61.0,-49.0,-23.0,0.0,0.0,0.0,0.0,0.0,0.0,0.0,0.0,0.0,0
-57.0,-32.0,-96.0,-82.0,-73.0,-49.0,-29.0,-12.0,0.0,0.0,0.0,0.0,0.0,0.0,0.0,0.0,0
-28.0,-36.0,-138.0,-90.0,-71.0,-47.0,-33.0,-21.0,0.0,0.0,0.0,0.0,0.0,0.0,0.0,0.0,0
-14.0,-14.0,-130.0,-100.0,-64.0,-39.0,-40.0,-36.0,0.0,0.0,0.0,0.0,0.0,0.0,0.0,0.0,0
-11.0,-17.0,-104.0,-96.0,-55.0,-33.0,-50.0,-57.0,0.0,0.0,0.0,0.0,0.0,0.0,0.0,0.0,0
4.0,-18.0,-83.0,-79.0,-47.0,-31.0,-44.0,-64.0,0.0,0.0,0.0,0.0,0.0,0.0,0.0,0.0,0
8.0,-40.0,-78.0,-67.0,-46.0,-30.0,-48.0,-69.0,0.0,0.0,0.0,0.0,0.0,0.0,0.0,0.0,0
5.0,-48.0,-71.0,-56.0,-44.0,-27.0,-49.0,-70.0,0.0,0.0,0.0,0.0,0.0,0.0,0.0,0.0,0
-19.0,-55.0,-61.0,-52.0,-42.0,-23.0,-58.0,-78.0,0.0,0.0,0.0,0.0,0.0,0.0,0.0,0.0,0
-32.0,-58.0,-59.0,-47.0,-48.0,-26.0,-56.0,-73.0,0.0,0.0,0.0,0.0,0.0,0.0,0.0,0.0,0
-12.0,-59.0,-45.0,-33.0,-45.0,-25.0,-59.0,-64.0,0.0,0.0,0.0,0.0,0.0,0.0,0.0,0.0,0
-8.0,-60.0,-16.0,-6.0,-27.0,-12.0,-64.0,-45.0,0.0,0.0,0.0,0.0,0.0,0.0,0.0,0.0,0
-44.0,-49.0,15.0,13.0,-20.0,-19.0,-58.0,-27.0,0.0,0.0,0.0,0.0,0.0,0.0,0.0,0.0,0
-42.0,-4.0,57.0,51.0,-6.0,-20.0,-45.0,-5.0,0.0,0.0,0.0,0.0,0.0,0.0,0.0,0.0,0
-24.0,21.0,54.0,79.0,16.0,-20.0,-37.0,16.0,0.0,0.0,0.0,0.0,0.0,0.0,0.0,0.0,0
-33.0,16.0,19.0,59.0,21.0,-15.0,-30.0,26.0,0.0,0.0,0.0,0.0,0.0,0.0,0.0,0.0,0
-35.0,20.0,6.0,30.0,3.0,-21.0,-31.0,19.0,0.0,0.0,0.0,0.0,0.0,0.0,0.0,0.0,0
-22.0,12.0,5.0,29.0,-7.0,-33.0,-25.0,19.0,0.0,0.0,0.0,0.0,0.0,0.0,0.0,0.0,0
-68.0,-18.0,10.0,24.0,-10.0,-30.0,-27.0,8.0,0.0,0.0,0.0,0.0,0.0,0.0,0.0,0.0,0
-113.0,-38.0,-7.0,8.0,-14.0,-35.0,-36.0,-2.0,0.0,0.0,0.0,0.0,0.0,0.0,0.0,0.0,0
-107.0,-44.0,-31.0,4.0,-11.0,-40.0,-37.0,-16.0,0.0,0.0,0.0,0.0,0.0,0.0,0.0,0.0,0
-78.0,-63.0,-71.0,-21.0,-14.0,-43.0,-43.0,-34.0,0.0,0.0,0.0,0.0,0.0,0.0,0.0,0.0,0
-71.0,-75.0,-92.0,-35.0,-21.0,-36.0,-44.0,-46.0,0.0,0.0,0.0,0.0,0.0,0.0,0.0,0.0,0
-74.0,-68.0,-60.0,-33.0,-26.0,-33.0,-36.0,-59.0,0.0,0.0,0.0,0.0,0.0,0.0,0.0,0.0,0
-76.0,-68.0,12.0,-9.0,-18.0,-33.0,-37.0,-76.0,0.0,0.0,0.0,0.0,0.0,0.0,0.0,0.0,0
-69.0,-71.0,52.0,-10.0,-33.0,-31.0,-34.0,-92.0,0.0,0.0,0.0,0.0,0.0,0.0,0.0,0.0,0
-65.0,-63.0,39.0,-22.0,-54.0,-41.0,-41.0,-102.0,0.0,0.0,0.0,0.0,0.0,0.0,0.0,0.0,0
-70.0,-71.0,0.0,-45.0,-69.0,-48.0,-42.0,-96.0,0.0,0.0,0.0,0.0,0.0,0.0,0.0,0.0,0
-44.0,-65.0,-36.0,-70.0,-70.0,-46.0,-44.0,-90.0,0.0,0.0,0.0,0.0,0.0,0.0,0.0,0.0,0
-18.0,-43.0,-60.0,-86.0,-65.0,-49.0,-41.0,-84.0,0.0,0.0,0.0,0.0,0.0,0.0,0.0,0.0,0
-14.0,-38.0,-72.0,-89.0,-70.0,-47.0,-44.0,-75.0,0.0,0.0,0.0,0.0,0.0,0.0,0.0,0.0,0
-2.0,-35.0,-54.0,-82.0,-73.0,-43.0,-44.0,-61.0,0.0,0.0,0.0,0.0,0.0,0.0,0.0,0.0,0
0.0,-10.0,-28.0,-76.0,-73.0,-46.0,-37.0,-42.0,0.0,0.0,0.0,0.0,0.0,0.0,0.0,0.0,0
-1.0,16.0,-15.0,-65.0,-67.0,-49.0,-31.0,-29.0,0.0,0.0,0.0,0.0,0.0,0.0,0.0,0.0,0
-4.0,11.0,-18.0,-48.0,-51.0,-51.0,-34.0,-19.0,0.0,0.0,0.0,0.0,0.0,0.0,0.0,0.0,0
3.0,22.0,-11.0,-38.0,-47.0,-52.0,-31.0,-10.0,0.0,0.0,0.0,0.0,0.0,0.0,0.0,0.0,0
5.0,40.0,31.0,-1.0,-34.0,-51.0,-37.0,-7.0,0.0,0.0,0.0,0.0,0.0,0.0,0.0,0.0,0
2.0,43.0,59.0,20.0,-23.0,-34.0,-41.0,3.0,0.0,0.0,0.0,0.0,0.0,0.0,0.0,0.0,0
-7.0,23.0,21.0,-7.0,-24.0,-43.0,-35.0,-2.0,0.0,0.0,0.0,0.0,0.0,0.0,0.0,0.0,0
-13.0,-11.0,-45.0,-45.0,-34.0,-44.0,-31.0,2.0,0.0,0.0,0.0,0.0,0.0,0.0,0.0,0.0,0
-20.0,-29.0,-78.0,-59.0,-38.0,-35.0,-32.0,-4.0,0.0,0.0,0.0,0.0,0.0,0.0,0.0,0.0,0
-33.0,-36.0,-75.0,-67.0,-26.0,-37.0,-41.0,-18.0,0.0,0.0,0.0,0.0,0.0,0.0,0.0,0.0,0
-56.0,-39.0,-86.0,-80.0,-24.0,-37.0,-39.0,-26.0,0.0,0.0,0.0,0.0,0.0,0.0,0.0,0.0,0
-49.0,-30.0,-95.0,-83.0,-32.0,-31.0,-42.0,-42.0,0.0,0.0,0.0,0.0,0.0,0.0,0.0,0.0,0
-33.0,-41.0,-98.0,-92.0,-28.0,-34.0,-48.0,-57.0,0.0,0.0,0.0,0.0,0.0,0.0,0.0,0.0,0
-20.0,-43.0,-82.0,-91.0,-33.0,-29.0,-47.0,-68.0,0.0,0.0,0.0,0.0,0.0,0.0,0.0,0.0,0
-20.0,-43.0,-74.0,-86.0,-33.0,-23.0,-47.0,-76.0,0.0,0.0,0.0,0.0,0.0,0.0,0.0,0.0,0
3.0,-42.0,-68.0,-73.0,-37.0,-28.0,-43.0,-81.0,0.0,0.0,0.0,0.0,0.0,0.0,0.0,0.0,0
15.0,-66.0,-61.0,-63.0,-34.0,-36.0,-50.0,-78.0,0.0,0.0,0.0,0.0,0.0,0.0,0.0,0.0,0
-16.0,-96.0,-77.0,-60.0,-39.0,-46.0,-51.0,-73.0,0.0,0.0,0.0,0.0,0.0,0.0,0.0,0.0,0
-36.0,-93.0,-72.0,-39.0,-41.0,-50.0,-39.0,-67.0,0.0,0.0,0.0,0.0,0.0,0.0,0.0,0.0,0
-18.0,-80.0,-64.0,-16.0,-15.0,-48.0,-38.0,-40.0,0.0,0.0,0.0,0.0,0.0,0.0,0.0,0.0,0
-44.0,-60.0,-32.0,12.0,-7.0,-45.0,-35.0,-26.0,0.0,0.0,0.0,0.0,0.0,0.0,0.0,0.0,0
-73.0,-38.0,20.0,31.0,3.0,-41.0,-32.0,-19.0,0.0,0.0,0.0,0.0,0.0,0.0,0.0,0.0,0
-72.0,-18.0,31.0,43.0,10.0,-44.0,-29.0,-3.0,0.0,0.0,0.0,0.0,0.0,0.0,0.0,0.0,0
-52.0,7.0,40.0,70.0,15.0,-41.0,-24.0,7.0,0.0,0.0,0.0,0.0,0.0,0.0,0.0,0.0,0
-28.0,13.0,30.0,68.0,19.0,-40.0,-21.0,19.0,0.0,0.0,0.0,0.0,0.0,0.0,0.0,0.0,0
-31.0,-9.0,-17.0,44.0,6.0,-45.0,-23.0,17.0,0.0,0.0,0.0,0.0,0.0,0.0,0.0,0.0,0
-48.0,-6.0,-26.0,37.0,-1.0,-50.0,-23.0,15.0,0.0,0.0,0.0,0.0,0.0,0.0,0.0,0.0,0
-60.0,14.0,-17.0,18.0,-9.0,-48.0,-22.0,15.0,0.0,0.0,0.0,0.0,0.0,0.0,0.0,0.0,0
-50.0,22.0,-10.0,-9.0,-18.0,-36.0,-18.0,5.0,0.0,0.0,0.0,0.0,0.0,0.0,0.0,0.0,0
-53.0,14.0,-9.0,-41.0,-24.0,-31.0,-21.0,-4.0,0.0,0.0,0.0,0.0,0.0,0.0,0.0,0.0,0
-75.0,2.0,-15.0,-58.0,-34.0,-33.0,-27.0,-27.0,0.0,0.0,0.0,0.0,0.0,0.0,0.0,0.0,0
-80.0,-8.0,-6.0,-64.0,-43.0,-32.0,-32.0,-48.0,0.0,0.0,0.0,0.0,0.0,0.0,0.0,0.0,0
-78.0,-22.0,-12.0,-85.0,-49.0,-37.0,-40.0,-70.0,0.0,0.0,0.0,0.0,0.0,0.0,0.0,0.0,0
-53.0,-52.0,-38.0,-103.0,-61.0,-39.0,-42.0,-87.0,0.0,0.0,0.0,0.0,0.0,0.0,0.0,0.0,0
-41.0,-60.0,-50.0,-105.0,-59.0,-33.0,-39.0,-81.0,0.0,0.0,0.0,0.0,0.0,0.0,0.0,0.0,0
-20.0,-62.0,-69.0,-94.0,-49.0,-32.0,-42.0,-88.0,0.0,0.0,0.0,0.0,0.0,0.0,0.0,0.0,0
2.0,-73.0,-78.0,-81.0,-48.0,-30.0,-43.0,-97.0,0.0,0.0,0.0,0.0,0.0,0.0,0.0,0.0,0
-8.0,-69.0,-66.0,-71.0,-53.0,-30.0,-45.0,-85.0,0.0,0.0,0.0,0.0,0.0,0.0,0.0,0.0,0
-11.0,-54.0,-47.0,-51.0,-46.0,-35.0,-46.0,-71.0,0.0,0.0,0.0,0.0,0.0,0.0,0.0,0.0,0
-2.0,-46.0,-41.0,-26.0,-34.0,-27.0,-41.0,-64.0,0.0,0.0,0.0,0.0,0.0,0.0,0.0,0.0,0
-37.0,-50.0,-59.0,-15.0,-29.0,-31.0,-36.0,-43.0,0.0,0.0,0.0,0.0,0.0,0.0,0.0,0.0,0
-61.0,-51.0,-70.0,-16.0,-33.0,-34.0,-40.0,-26.0,0.0,0.0,0.0,0.0,0.0,0.0,0.0,0.0,0
-56.0,-42.0,-78.0,-17.0,-37.0,-32.0,-35.0,-8.0,0.0,0.0,0.0,0.0,0.0,0.0,0.0,0.0,0
-46.0,-21.0,-86.0,-10.0,-41.0,-39.0,-29.0,-1.0,0.0,0.0,0.0,0.0,0.0,0.0,0.0,0.0,0
-36.0,-8.0,-63.0,-2.0,-36.0,-33.0,-27.0,-4.0,0.0,0.0,0.0,0.0,0.0,0.0,0.0,0.0,0
-14.0,-5.0,-43.0,9.0,-34.0,-32.0,-29.0,2.0,0.0,0.0,0.0,0.0,0.0,0.0,0.0,0.0,0
-6.0,7.0,-39.0,0.0,-42.0,-38.0,-32.0,5.0,0.0,0.0,0.0,0.0,0.0,0.0,0.0,0.0,0
25.0,18.0,-40.0,-17.0,-51.0,-42.0,-27.0,-3.0,0.0,0.0,0.0,0.0,0.0,0.0,0.0,0.0,0
36.0,20.0,-19.0,-22.0,-48.0,-40.0,-31.0,-10.0,0.0,0.0,0.0,0.0,0.0,0.0,0.0,0.0,0
13.0,-6.0,-19.0,-20.0,-37.0,-35.0,-36.0,-26.0,0.0,0.0,0.0,0.0,0.0,0.0,0.0,0.0,0
-39.0,-29.0,-2.0,-1.0,-37.0,-22.0,-39.0,-33.0,0.0,0.0,0.0,0.0,0.0,0.0,0.0,0.0,0
-65.0,-45.0,2.0,7.0,-28.0,-24.0,-41.0,-50.0,0.0,0.0,0.0,0.0,0.0,0.0,0.0,0.0,0
-62.0,-68.0,-5.0,16.0,-10.0,-20.0,-39.0,-66.0,0.0,0.0,0.0,0.0,0.0,0.0,0.0,0.0,0
-43.0,-77.0,-6.0,36.0,5.0,-9.0,-37.0,-68.0,0.0,0.0,0.0,0.0,0.0,0.0,0.0,0.0,0
-49.0,-81.0,-18.0,3.0,-2.0,-11.0,-43.0,-76.0,0.0,0.0,0.0,0.0,0.0,0.0,0.0,0.0,0
-39.0,-72.0,-39.0,-51.0,-24.0,-24.0,-44.0,-88.0,0.0,0.0,0.0,0.0,0.0,0.0,0.0,0.0,0
-29.0,-55.0,-47.0,-66.0,-46.0,-23.0,-52.0,-89.0,0.0,0.0,0.0,0.0,0.0,0.0,0.0,0.0,0
-44.0,-64.0,-45.0,-63.0,-46.0,-27.0,-53.0,-80.0,0.0,0.0,0.0,0.0,0.0,0.0,0.0,0.0,0
-54.0,-81.0,-35.0,-49.0,-34.0,-27.0,-53.0,-74.0,0.0,0.0,0.0,0.0,0.0,0.0,0.0,0.0,0
-43.0,-77.0,-24.0,-39.0,-24.0,-28.0,-52.0,-59.0,0.0,0.0,0.0,0.0,0.0,0.0,0.0,0.0,0
-47.0,-61.0,-15.0,-31.0,-28.0,-30.0,-43.0,-35.0,0.0,0.0,0.0,0.0,0.0,0.0,0.0,0.0,0
-48.0,-40.0,-15.0,-37.0,-40.0,-31.0,-39.0,-18.0,0.0,0.0,0.0,0.0,0.0,0.0,0.0,0.0,0
-35.0,-21.0,-29.0,-52.0,-52.0,-30.0,-41.0,-10.0,0.0,0.0,0.0,0.0,0.0,0.0,0.0,0.0,0
2.0,-8.0,-46.0,-59.0,-61.0,-29.0,-38.0,1.0,0.0,0.0,0.0,0.0,0.0,0.0,0.0,0.0,0
36.0,-9.0,-54.0,-69.0,-73.0,-36.0,-40.0,0.0,0.0,0.0,0.0,0.0,0.0,0.0,0.0,0.0,0
12.0,-27.0,-48.0,-64.0,-60.0,-38.0,-44.0,-3.0,0.0,0.0,0.0,0.0,0.0,0.0,0.0,0.0,0
-33.0,-38.0,-44.0,-63.0,-52.0,-39.0,-38.0,-1.0,0.0,0.0,0.0,0.0,0.0,0.0,0.0,0.0,0
-39.0,-25.0,-50.0,-69.0,-47.0,-36.0,-27.0,0.0,0.0,0.0,0.0,0.0,0.0,0.0,0.0,0.0,0
-38.0,-4.0,-58.0,-69.0,-44.0,-35.0,-26.0,-6.0,0.0,0.0,0.0,0.0,0.0,0.0,0.0,0.0,0
-57.0,27.0,-60.0,-75.0,-45.0,-40.0,-25.0,-9.0,0.0,0.0,0.0,0.0,0.0,0.0,0.0,0.0,0
-72.0,22.0,-47.0,-66.0,-44.0,-44.0,-32.0,-22.0,0.0,0.0,0.0,0.0,0.0,0.0,0.0,0.0,0
-44.0,-14.0,-47.0,-70.0,-47.0,-43.0,-35.0,-40.0,0.0,0.0,0.0,0.0,0.0,0.0,0.0,0.0,0
-19.0,-65.0,-47.0,-62.0,-41.0,-42.0,-36.0,-56.0,0.0,0.0,0.0,0.0,0.0,0.0,0.0,0.0,0
-42.0,-91.0,-49.0,-53.0,-28.0,-35.0,-32.0,-68.0,0.0,0.0,0.0,0.0,0.0,0.0,0.0,0.0,0
-74.0,-85.0,-31.0,-36.0,-23.0,-30.0,-35.0,-79.0,0.0,0.0,0.0,0.0,0.0,0.0,0.0,0.0,0
-45.0,-76.0,-15.0,-21.0,-18.0,-32.0,-40.0,-88.0,0.0,0.0,0.0,0.0,0.0,0.0,0.0,0.0,0
-1.0,-77.0,-7.0,-16.0,-25.0,-35.0,-49.0,-84.0,0.0,0.0,0.0,0.0,0.0,0.0,0.0,0.0,0
0.0,-71.0,-2.0,-6.0,-25.0,-36.0,-46.0,-75.0,0.0,0.0,0.0,0.0,0.0,0.0,0.0,0.0,0
-4.0,-53.0,11.0,-4.0,-17.0,-36.0,-37.0,-56.0,0.0,0.0,0.0,0.0,0.0,0.0,0.0,0.0,0
7.0,-30.0,36.0,6.0,-10.0,-32.0,-39.0,-37.0,0.0,0.0,0.0,0.0,0.0,0.0,0.0,0.0,0
-1.0,-15.0,26.0,-2.0,-21.0,-32.0,-29.0,-22.0,0.0,0.0,0.0,0.0,0.0,0.0,0.0,0.0,0
-27.0,-11.0,1.0,-13.0,-24.0,-24.0,-26.0,-14.0,0.0,0.0,0.0,0.0,0.0,0.0,0.0,0.0,0
-61.0,-21.0,-5.0,-19.0,-22.0,-26.0,-22.0,3.0,0.0,0.0,0.0,0.0,0.0,0.0,0.0,0.0,0
-82.0,-22.0,-14.0,-18.0,-25.0,-34.0,-20.0,15.0,0.0,0.0,0.0,0.0,0.0,0.0,0.0,0.0,0
-69.0,-5.0,-10.0,-20.0,-34.0,-31.0,-20.0,20.0,0.0,0.0,0.0,0.0,0.0,0.0,0.0,0.0,0
-48.0,6.0,-5.0,-18.0,-39.0,-30.0,-23.0,17.0,0.0,0.0,0.0,0.0,0.0,0.0,0.0,0.0,0
-47.0,3.0,-44.0,-21.0,-33.0,-32.0,-24.0,13.0,0.0,0.0,0.0,0.0,0.0,0.0,0.0,0.0,0
-48.0,-9.0,-72.0,-36.0,-35.0,-34.0,-16.0,10.0,0.0,0.0,0.0,0.0,0.0,0.0,0.0,0.0,0
-54.0,-6.0,-63.0,-40.0,-35.0,-31.0,-13.0,2.0,0.0,0.0,0.0,0.0,0.0,0.0,0.0,0.0,0
-56.0,-4.0,-51.0,-40.0,-33.0,-30.0,-9.0,-6.0,0.0,0.0,0.0,0.0,0.0,0.0,0.0,0.0,0
-68.0,-9.0,-49.0,-46.0,-33.0,-34.0,-15.0,-19.0,0.0,0.0,0.0,0.0,0.0,0.0,0.0,0.0,0
-68.0,-17.0,-47.0,-48.0,-27.0,-32.0,-19.0,-28.0,0.0,0.0,0.0,0.0,0.0,0.0,0.0,0.0,0
-50.0,-29.0,-48.0,-55.0,-29.0,-30.0,-24.0,-47.0,0.0,0.0,0.0,0.0,0.0,0.0,0.0,0.0,0
-18.0,-47.0,-59.0,-61.0,-33.0,-32.0,-36.0,-62.0,0.0,0.0,0.0,0.0,0.0,0.0,0.0,0.0,0
-17.0,-69.0,-56.0,-49.0,-28.0,-32.0,-39.0,-75.0,0.0,0.0,0.0,0.0,0.0,0.0,0.0,0.0,0
-19.0,-87.0,-56.0,-36.0,-30.0,-26.0,-34.0,-70.0,0.0,0.0,0.0,0.0,0.0,0.0,0.0,0.0,0
-10.0,-85.0,-57.0,-41.0,-34.0,-26.0,-42.0,-61.0,0.0,0.0,0.0,0.0,0.0,0.0,0.0,0.0,0
-17.0,-65.0,-64.0,-54.0,-51.0,-38.0,-40.0,-65.0,0.0,0.0,0.0,0.0,0.0,0.0,0.0,0.0,0
-4.0,-49.0,-70.0,-52.0,-43.0,-37.0,-45.0,-51.0,0.0,0.0,0.0,0.0,0.0,0.0,0.0,0.0,0
13.0,-45.0,-56.0,-51.0,-35.0,-34.0,-46.0,-35.0,0.0,0.0,0.0,0.0,0.0,0.0,0.0,0.0,0
-15.0,-38.0,-41.0,-33.0,-29.0,-28.0,-43.0,-11.0,0.0,0.0,0.0,0.0,0.0,0.0,0.0,0.0,0
-28.0,-28.0,-37.0,-26.0,-32.0,-24.0,-42.0,1.0,0.0,0.0,0.0,0.0,0.0,0.0,0.0,0.0,0
9.0,-15.0,-38.0,-30.0,-37.0,-26.0,-44.0,4.0,0.0,0.0,0.0,0.0,0.0,0.0,0.0,0.0,0
15.0,1.0,-38.0,-27.0,-39.0,-31.0,-40.0,12.0,0.0,0.0,0.0,0.0,0.0,0.0,0.0,0.0,0
15.0,3.0,-37.0,-19.0,-39.0,-38.0,-36.0,21.0,0.0,0.0,0.0,0.0,0.0,0.0,0.0,0.0,0
7.0,5.0,-27.0,-24.0,-48.0,-39.0,-39.0,15.0,0.0,0.0,0.0,0.0,0.0,0.0,0.0,0.0,0
-26.0,8.0,-24.0,-43.0,-55.0,-44.0,-42.0,11.0,0.0,0.0,0.0,0.0,0.0,0.0,0.0,0.0,0
-50.0,0.0,-31.0,-61.0,-60.0,-45.0,-43.0,-4.0,0.0,0.0,0.0,0.0,0.0,0.0,0.0,0.0,0
-56.0,-15.0,-47.0,-66.0,-61.0,-47.0,-34.0,-12.0,0.0,0.0,0.0,0.0,0.0,0.0,0.0,0.0,0
-39.0,-31.0,-39.0,-54.0,-53.0,-44.0,-41.0,-17.0,0.0,0.0,0.0,0.0,0.0,0.0,0.0,0.0,0
-52.0,-20.0,14.0,-13.0,-37.0,-36.0,-40.0,-25.0,0.0,0.0,0.0,0.0,0.0,0.0,0.0,0.0,0
-60.0,-5.0,61.0,35.0,-17.0,-32.0,-38.0,-40.0,0.0,0.0,0.0,0.0,0.0,0.0,0.0,0.0,0
-48.0,-15.0,58.0,33.0,-25.0,-34.0,-42.0,-63.0,0.0,0.0,0.0,0.0,0.0,0.0,0.0,0.0,0
-33.0,-40.0,4.0,-16.0,-38.0,-40.0,-38.0,-78.0,0.0,0.0,0.0,0.0,0.0,0.0,0.0,0.0,0
-35.0,-66.0,-51.0,-54.0,-42.0,-53.0,-36.0,-86.0,0.0,0.0,0.0,0.0,0.0,0.0,0.0,0.0,0
-30.0,-79.0,-74.0,-73.0,-50.0,-53.0,-47.0,-91.0,0.0,0.0,0.0,0.0,0.0,0.0,0.0,0.0,0
-10.0,-82.0,-84.0,-84.0,-48.0,-54.0,-52.0,-88.0,0.0,0.0,0.0,0.0,0.0,0.0,0.0,0.0,0
-19.0,-81.0,-56.0,-64.0,-43.0,-43.0,-48.0,-80.0,0.0,0.0,0.0,0.0,0.0,0.0,0.0,0.0,0
-35.0,-72.0,-37.0,-49.0,-41.0,-39.0,-41.0,-64.0,0.0,0.0,0.0,0.0,0.0,0.0,0.0,0.0,0
-57.0,-87.0,-71.0,-58.0,-38.0,-41.0,-39.0,-50.0,0.0,0.0,0.0,0.0,0.0,0.0,0.0,0.0,0
-91.0,-100.0,-115.0,-81.0,-50.0,-43.0,-40.0,-33.0,0.0,0.0,0.0,0.0,0.0,0.0,0.0,0.0,0
-79.0,-64.0,-119.0,-96.0,-58.0,-52.0,-40.0,-25.0,0.0,0.0,0.0,0.0,0.0,0.0,0.0,0.0,0
-45.0,-12.0,-86.0,-83.0,-46.0,-45.0,-33.0,-12.0,0.0,0.0,0.0,0.0,0.0,0.0,0.0,0.0,0
-44.0,15.0,-47.0,-51.0,-39.0,-41.0,-31.0,-9.0,0.0,0.0,0.0,0.0,0.0,0.0,0.0,0.0,0
-38.0,12.0,-23.0,-24.0,-36.0,-40.0,-35.0,-10.0,0.0,0.0,0.0,0.0,0.0,0.0,0.0,0.0,0
-19.0,-9.0,-19.0,-30.0,-47.0,-40.0,-41.0,-4.0,0.0,0.0,0.0,0.0,0.0,0.0,0.0,0.0,0
5.0,-4.0,13.0,-26.0,-49.0,-41.0,-48.0,1.0,0.0,0.0,0.0,0.0,0.0,0.0,0.0,0.0,0
-1.0,-17.0,33.0,0.0,-39.0,-38.0,-38.0,-2.0,0.0,0.0,0.0,0.0,0.0,0.0,0.0,0.0,0
-35.0,-65.0,-38.0,-1.0,-37.0,-30.0,-34.0,-8.0,0.0,0.0,0.0,0.0,0.0,0.0,0.0,0.0,0
-57.0,-77.0,-51.0,-13.0,-37.0,-37.0,-38.0,-20.0,0.0,0.0,0.0,0.0,0.0,0.0,0.0,0.0,0
-77.0,-45.0,-44.0,-21.0,-37.0,-38.0,-33.0,-32.0,0.0,0.0,0.0,0.0,0.0,0.0,0.0,0.0,0
-74.0,-25.0,-43.0,-25.0,-26.0,-40.0,-35.0,-40.0,0.0,0.0,0.0,0.0,0.0,0.0,0.0,0.0,0
-60.0,-11.0,-19.0,-12.0,-17.0,-30.0,-43.0,-59.0,0.0,0.0,0.0,0.0,0.0,0.0,0.0,0.0,0
-41.0,-20.0,11.0,1.0,1.0,-27.0,-40.0,-68.0,0.0,0.0,0.0,0.0,0.0,0.0,0.0,0.0,0
-36.0,-19.0,27.0,8.0,12.0,-26.0,-33.0,-78.0,0.0,0.0,0.0,0.0,0.0,0.0,0.0,0.0,0
-31.0,-38.0,-1.0,5.0,5.0,-23.0,-29.0,-90.0,0.0,0.0,0.0,0.0,0.0,0.0,0.0,0.0,0
-20.0,-58.0,-45.0,-8.0,-3.0,-26.0,-37.0,-87.0,0.0,0.0,0.0,0.0,0.0,0.0,0.0,0.0,0
-28.0,-62.0,-55.0,-18.0,-7.0,-22.0,-40.0,-71.0,0.0,0.0,0.0,0.0,0.0,0.0,0.0,0.0,0
-30.0,-47.0,-40.0,-14.0,-15.0,-22.0,-30.0,-62.0,0.0,0.0,0.0,0.0,0.0,0.0,0.0,0.0,0
-28.0,-33.0,-30.0,-12.0,-22.0,-36.0,-26.0,-51.0,0.0,0.0,0.0,0.0,0.0,0.0,0.0,0.0,0
-66.0,-24.0,-24.0,-17.0,-33.0,-36.0,-28.0,-25.0,0.0,0.0,0.0,0.0,0.0,0.0,0.0,0.0,0
-89.0,-14.0,-21.0,-23.0,-38.0,-39.0,-25.0,-8.0,0.0,0.0,0.0,0.0,0.0,0.0,0.0,0.0,0
-88.0,-12.0,-9.0,-26.0,-43.0,-43.0,-21.0,6.0,0.0,0.0,0.0,0.0,0.0,0.0,0.0,0.0,0
-65.0,3.0,-7.0,-33.0,-48.0,-32.0,-11.0,9.0,0.0,0.0,0.0,0.0,0.0,0.0,0.0,0.0,0
-24.0,34.0,6.0,-31.0,-44.0,-28.0,-17.0,6.0,0.0,0.0,0.0,0.0,0.0,0.0,0.0,0.0,0
5.0,35.0,11.0,-41.0,-53.0,-32.0,-23.0,9.0,0.0,0.0,0.0,0.0,0.0,0.0,0.0,0.0,0
-4.0,16.0,6.0,-35.0,-53.0,-35.0,-23.0,9.0,0.0,0.0,0.0,0.0,0.0,0.0,0.0,0.0,0
8.0,3.0,3.0,-24.0,-56.0,-32.0,-12.0,8.0,0.0,0.0,0.0,0.0,0.0,0.0,0.0,0.0,0
3.0,-10.0,-13.0,-19.0,-48.0,-27.0,-17.0,-1.0,0.0,0.0,0.0,0.0,0.0,0.0,0.0,0.0,0
-5.0,-28.0,-39.0,-31.0,-41.0,-37.0,-23.0,-10.0,0.0,0.0,0.0,0.0,0.0,0.0,0.0,0.0,0
-34.0,-51.0,-78.0,-42.0,-46.0,-33.0,-26.0,-22.0,0.0,0.0,0.0,0.0,0.0,0.0,0.0,0.0,0
-60.0,-51.0,-108.0,-43.0,-36.0,-31.0,-27.0,-38.0,0.0,0.0,0.0,0.0,0.0,0.0,0.0,0.0,0
-41.0,-36.0,-96.0,-43.0,-28.0,-30.0,-30.0,-56.0,0.0,0.0,0.0,0.0,0.0,0.0,0.0,0.0,0
-7.0,-40.0,-69.0,-62.0,-36.0,-29.0,-32.0,-68.0,0.0,0.0,0.0,0.0,0.0,0.0,0.0,0.0,0
-15.0,-59.0,-55.0,-73.0,-31.0,-37.0,-33.0,-79.0,0.0,0.0,0.0,0.0,0.0,0.0,0.0,0.0,0
-15.0,-53.0,-27.0,-68.0,-31.0,-30.0,-32.0,-91.0,0.0,0.0,0.0,0.0,0.0,0.0,0.0,0.0,0
-6.0,-56.0,-16.0,-64.0,-33.0,-39.0,-44.0,-96.0,0.0,0.0,0.0,0.0,0.0,0.0,0.0,0.0,0
-8.0,-60.0,-24.0,-70.0,-40.0,-48.0,-51.0,-90.0,0.0,0.0,0.0,0.0,0.0,0.0,0.0,0.0,0
-10.0,-51.0,-19.0,-64.0,-42.0,-42.0,-45.0,-80.0,0.0,0.0,0.0,0.0,0.0,0.0,0.0,0.0,0
-19.0,-48.0,-3.0,-56.0,-43.0,-40.0,-47.0,-53.0,0.0,0.0,0.0,0.0,0.0,0.0,0.0,0.0,0
-59.0,-40.0,23.0,-34.0,-39.0,-34.0,-42.0,-30.0,0.0,0.0,0.0,0.0,0.0,0.0,0.0,0.0,0
-98.0,-31.0,22.0,-15.0,-30.0,-24.0,-34.0,-15.0,0.0,0.0,0.0,0.0,0.0,0.0,0.0,0.0,0
-105.0,-36.0,-6.0,-10.0,-24.0,-25.0,-34.0,-12.0,0.0,0.0,0.0,0.0,0.0,0.0,0.0,0.0,0
-73.0,-26.0,-22.0,0.0,-19.0,-27.0,-33.0,-4.0,0.0,0.0,0.0,0.0,0.0,0.0,0.0,0.0,0
-31.0,-2.0,-29.0,-11.0,-21.0,-19.0,-30.0,0.0,0.0,0.0,0.0,0.0,0.0,0.0,0.0,0.0,0
-6.0,-2.0,-43.0,-27.0,-33.0,-28.0,-32.0,6.0,0.0,0.0,0.0,0.0,0.0,0.0,0.0,0.0,0
-8.0,-8.0,-54.0,-32.0,-43.0,-28.0,-30.0,10.0,0.0,0.0,0.0,0.0,0.0,0.0,0.0,0.0,0
13.0,2.0,-54.0,-41.0,-48.0,-28.0,-34.0,0.0,0.0,0.0,0.0,0.0,0.0,0.0,0.0,0.0,0
17.0,5.0,-56.0,-58.0,-53.0,-31.0,-42.0,-15.0,0.0,0.0,0.0,0.0,0.0,0.0,0.0,0.0,0
-8.0,-15.0,-64.0,-66.0,-56.0,-37.0,-53.0,-27.0,0.0,0.0,0.0,0.0,0.0,0.0,0.0,0.0,0
-57.0,-34.0,-68.0,-69.0,-47.0,-36.0,-52.0,-28.0,0.0,0.0,0.0,0.0,0.0,0.0,0.0,0.0,0
-56.0,-31.0,-76.0,-69.0,-44.0,-31.0,-53.0,-41.0,0.0,0.0,0.0,0.0,0.0,0.0,0.0,0.0,0
-26.0,-34.0,-72.0,-63.0,-41.0,-34.0,-51.0,-68.0,0.0,0.0,0.0,0.0,0.0,0.0,0.0,0.0,0
-1.0,-31.0,-65.0,-52.0,-33.0,-23.0,-49.0,-80.0,0.0,0.0,0.0,0.0,0.0,0.0,0.0,0.0,0
-6.0,-34.0,-57.0,-48.0,-25.0,-21.0,-56.0,-83.0,0.0,0.0,0.0,0.0,0.0,0.0,0.0,0.0,0
1.0,-33.0,-63.0,-56.0,-23.0,-19.0,-49.0,-92.0,0.0,0.0,0.0,0.0,0.0,0.0,0.0,0.0,0
26.0,-40.0,-53.0,-54.0,-17.0,-18.0,-53.0,-91.0,0.0,0.0,0.0,0.0,0.0,0.0,0.0,0.0,0
-2.0,-58.0,-46.0,-35.0,-18.0,-22.0,-48.0,-91.0,0.0,0.0,0.0,0.0,0.0,0.0,0.0,0.0,0
-33.0,-77.0,-37.0,-29.0,-23.0,-26.0,-40.0,-66.0,0.0,0.0,0.0,0.0,0.0,0.0,0.0,0.0,0
-60.0,-99.0,-38.0,-23.0,-32.0,-28.0,-38.0,-54.0,0.0,0.0,0.0,0.0,0.0,0.0,0.0,0.0,0
-87.0,-96.0,-45.0,-19.0,-35.0,-21.0,-31.0,-27.0,0.0,0.0,0.0,0.0,0.0,0.0,0.0,0.0,0
-93.0,-69.0,-43.0,-19.0,-36.0,-17.0,-24.0,-8.0,0.0,0.0,0.0,0.0,0.0,0.0,0.0,0.0,0
-93.0,-69.0,-38.0,-18.0,-37.0,-25.0,-26.0,3.0,0.0,0.0,0.0,0.0,0.0,0.0,0.0,0.0,0
-83.0,-45.0,-30.0,-4.0,-31.0,-27.0,-28.0,7.0,0.0,0.0,0.0,0.0,0.0,0.0,0.0,0.0,0
-66.0,-41.0,-27.0,-13.0,-36.0,-36.0,-26.0,9.0,0.0,0.0,0.0,0.0,0.0,0.0,0.0,0.0,0
-48.0,-18.0,-17.0,-16.0,-40.0,-37.0,-26.0,14.0,0.0,0.0,0.0,0.0,0.0,0.0,0.0,0.0,0
-51.0,10.0,-9.0,-18.0,-42.0,-31.0,-32.0,15.0,0.0,0.0,0.0,0.0,0.0,0.0,0.0,0.0,0
-63.0,14.0,10.0,-7.0,-33.0,-35.0,-31.0,1.0,0.0,0.0,0.0,0.0,0.0,0.0,0.0,0.0,0
-51.0,24.0,37.0,19.0,-20.0,-30.0,-20.0,-9.0,0.0,0.0,0.0,0.0,0.0,0.0,0.0,0.0,0
-43.0,14.0,25.0,25.0,-24.0,-31.0,-20.0,-10.0,0.0,0.0,0.0,0.0,0.0,0.0,0.0,0.0,0
-63.0,-8.0,-32.0,-14.0,-40.0,-38.0,-21.0,-16.0,0.0,0.0,0.0,0.0,0.0,0.0,0.0,0.0,0
-57.0,-21.0,-77.0,-42.0,-43.0,-52.0,-30.0,-37.0,0.0,0.0,0.0,0.0,0.0,0.0,0.0,0.0,0
-27.0,-17.0,-75.0,-51.0,-49.0,-49.0,-26.0,-64.0,0.0,0.0,0.0,0.0,0.0,0.0,0.0,0.0,0
11.0,-19.0,-55.0,-52.0,-53.0,-50.0,-28.0,-70.0,0.0,0.0,0.0,0.0,0.0,0.0,0.0,0.0,0
27.0,-13.0,-45.0,-43.0,-47.0,-44.0,-28.0,-76.0,0.0,0.0,0.0,0.0,0.0,0.0,0.0,0.0,0
48.0,-10.0,2.0,-24.0,-31.0,-36.0,-23.0,-88.0,0.0,0.0,0.0,0.0,0.0,0.0,0.0,0.0,0
54.0,6.0,80.0,28.0,-4.0,-25.0,-20.0,-83.0,0.0,0.0,0.0,0.0,0.0,0.0,0.0,0.0,0
11.0,-9.0,91.0,30.0,-4.0,-26.0,-17.0,-70.0,0.0,0.0,0.0,0.0,0.0,0.0,0.0,0.0,0
-25.0,-44.0,8.0,-24.0,-30.0,-36.0,-24.0,-69.0,0.0,0.0,0.0,0.0,0.0,0.0,0.0,0.0,0
-26.0,-62.0,-63.0,-66.0,-41.0,-41.0,-24.0,-58.0,0.0,0.0,0.0,0.0,0.0,0.0,0.0,0.0,0
-54.0,-57.0,-97.0,-79.0,-50.0,-40.0,-27.0,-47.0,0.0,0.0,0.0,0.0,0.0,0.0,0.0,0.0,0
-62.0,-39.0,-91.0,-89.0,-58.0,-32.0,-28.0,-24.0,0.0,0.0,0.0,0.0,0.0,0.0,0.0,0.0,0
-51.0,-31.0,-85.0,-87.0,-57.0,-36.0,-29.0,-9.0,0.0,0.0,0.0,0.0,0.0,0.0,0.0,0.0,0
-42.0,-28.0,-81.0,-72.0,-50.0,-40.0,-25.0,-4.0,0.0,0.0,0.0,0.0,0.0,0.0,0.0,0.0,0
-21.0,-25.0,-62.0,-63.0,-42.0,-42.0,-27.0,-8.0,0.0,0.0,0.0,0.0,0.0,0.0,0.0,0.0,0
-12.0,-29.0,-43.0,-56.0,-37.0,-40.0,-23.0,5.0,0.0,0.0,0.0,0.0,0.0,0.0,0.0,0.0,0
-36.0,-31.0,-39.0,-46.0,-33.0,-41.0,-22.0,10.0,0.0,0.0,0.0,0.0,0.0,0.0,0.0,0.0,0
-44.0,-33.0,-38.0,-31.0,-23.0,-36.0,-27.0,-4.0,0.0,0.0,0.0,0.0,0.0,0.0,0.0,0.0,0
-50.0,-50.0,-44.0,-29.0,-19.0,-38.0,-23.0,-18.0,0.0,0.0,0.0,0.0,0.0,0.0,0.0,0.0,0
-52.0,-72.0,-57.0,-32.0,-17.0,-36.0,-24.0,-26.0,0.0,0.0,0.0,0.0,0.0,0.0,0.0,0.0,0
-57.0,-53.0,-53.0,-24.0,-15.0,-31.0,-22.0,-36.0,0.0,0.0,0.0,0.0,0.0,0.0,0.0,0.0,0
-58.0,-34.0,-55.0,-17.0,-3.0,-33.0,-26.0,-42.0,0.0,0.0,0.0,0.0,0.0,0.0,0.0,0.0,0
-38.0,-30.0,-54.0,-13.0,3.0,-23.0,-27.0,-62.0,0.0,0.0,0.0,0.0,0.0,0.0,0.0,0.0,0
-19.0,-38.0,-66.0,-7.0,-2.0,-25.0,-27.0,-76.0,0.0,0.0,0.0,0.0,0.0,0.0,0.0,0.0,0
-15.0,-46.0,-67.0,-10.0,-13.0,-23.0,-33.0,-80.0,0.0,0.0,0.0,0.0,0.0,0.0,0.0,0.0,0
-4.0,-47.0,-50.0,-18.0,-12.0,-22.0,-35.0,-84.0,0.0,0.0,0.0,0.0,0.0,0.0,0.0,0.0,0
10.0,-44.0,-30.0,-21.0,-15.0,-26.0,-33.0,-84.0,0.0,0.0,0.0,0.0,0.0,0.0,0.0,0.0,0
-22.0,-37.0,-13.0,-32.0,-15.0,-29.0,-33.0,-81.0,0.0,0.0,0.0,0.0,0.0,0.0,0.0,0.0,0
-40.0,-23.0,-10.0,-32.0,-22.0,-37.0,-40.0,-73.0,0.0,0.0,0.0,0.0,0.0,0.0,0.0,0.0,0
-50.0,-40.0,-24.0,-38.0,-32.0,-40.0,-42.0,-55.0,0.0,0.0,0.0,0.0,0.0,0.0,0.0,0.0,0
-79.0,-44.0,-39.0,-40.0,-28.0,-44.0,-42.0,-40.0,0.0,0.0,0.0,0.0,0.0,0.0,0.0,0.0,0
-81.0,-35.0,-32.0,-35.0,-29.0,-42.0,-40.0,-25.0,0.0,0.0,0.0,0.0,0.0,0.0,0.0,0.0,0
-58.0,-11.0,-31.0,-31.0,-31.0,-43.0,-36.0,-6.0,0.0,0.0,0.0,0.0,0.0,0.0,0.0,0.0,0
-20.0,20.0,-25.0,-23.0,-32.0,-42.0,-39.0,14.0,0.0,0.0,0.0,0.0,0.0,0.0,0.0,0.0,0
16.0,25.0,-12.0,1.0,-36.0,-43.0,-35.0,12.0,0.0,0.0,0.0,0.0,0.0,0.0,0.0,0.0,0
15.0,3.0,0.0,9.0,-35.0,-49.0,-34.0,21.0,0.0,0.0,0.0,0.0,0.0,0.0,0.0,0.0,0
5.0,-18.0,-27.0,-11.0,-45.0,-47.0,-35.0,19.0,0.0,0.0,0.0,0.0,0.0,0.0,0.0,0.0,0
-15.0,-42.0,-31.0,-18.0,-50.0,-46.0,-32.0,12.0,0.0,0.0,0.0,0.0,0.0,0.0,0.0,0.0,0
-39.0,-53.0,-2.0,-1.0,-37.0,-40.0,-31.0,2.0,0.0,0.0,0.0,0.0,0.0,0.0,0.0,0.0,0
-83.0,-68.0,11.0,5.0,-31.0,-30.0,-34.0,-2.0,0.0,0.0,0.0,0.0,0.0,0.0,0.0,0.0,0
-119.0,-86.0,-6.0,-14.0,-38.0,-29.0,-34.0,-17.0,0.0,0.0,0.0,0.0,0.0,0.0,0.0,0.0,0
-121.0,-73.0,-53.0,-51.0,-44.0,-33.0,-32.0,-34.0,0.0,0.0,0.0,0.0,0.0,0.0,0.0,0.0,0
-90.0,-47.0,-70.0,-67.0,-48.0,-23.0,-26.0,-55.0,0.0,0.0,0.0,0.0,0.0,0.0,0.0,0.0,0
-60.0,-34.0,-64.0,-50.0,-43.0,-20.0,-32.0,-68.0,0.0,0.0,0.0,0.0,0.0,0.0,0.0,0.0,0
-30.0,-23.0,-60.0,-47.0,-39.0,-13.0,-30.0,-70.0,0.0,0.0,0.0,0.0,0.0,0.0,0.0,0.0,0
-7.0,-20.0,-39.0,-45.0,-40.0,-18.0,-31.0,-83.0,0.0,0.0,0.0,0.0,0.0,0.0,0.0,0.0,0
2.0,-28.0,-23.0,-42.0,-42.0,-18.0,-40.0,-86.0,0.0,0.0,0.0,0.0,0.0,0.0,0.0,0.0,0
-15.0,-34.0,-33.0,-49.0,-39.0,-18.0,-46.0,-72.0,0.0,0.0,0.0,0.0,0.0,0.0,0.0,0.0,0
-3.0,-32.0,-57.0,-59.0,-44.0,-26.0,-50.0,-63.0,0.0,0.0,0.0,0.0,0.0,0.0,0.0,0.0,0
1.0,-53.0,-73.0,-61.0,-39.0,-28.0,-46.0,-47.0,0.0,0.0,0.0,0.0,0.0,0.0,0.0,0.0,0
-28.0,-54.0,-85.0,-49.0,-33.0,-24.0,-34.0,-25.0,0.0,0.0,0.0,0.0,0.0,0.0,0.0,0.0,0
-65.0,-52.0,-90.0,-36.0,-28.0,-23.0,-34.0,-10.0,0.0,0.0,0.0,0.0,0.0,0.0,0.0,0.0,0
-59.0,-47.0,-84.0,-34.0,-27.0,-28.0,-34.0,-1.0,0.0,0.0,0.0,0.0,0.0,0.0,0.0,0.0,0
-44.0,-21.0,-71.0,-36.0,-32.0,-33.0,-28.0,13.0,0.0,0.0,0.0,0.0,0.0,0.0,0.0,0.0,0
-29.0,-24.0,-59.0,-29.0,-36.0,-33.0,-25.0,14.0,0.0,0.0,0.0,0.0,0.0,0.0,0.0,0.0,0
-17.0,-24.0,-44.0,-25.0,-37.0,-34.0,-22.0,16.0,0.0,0.0,0.0,0.0,0.0,0.0,0.0,0.0,0
-35.0,-29.0,-28.0,-19.0,-26.0,-31.0,-13.0,20.0,0.0,0.0,0.0,0.0,0.0,0.0,0.0,0.0,0
-44.0,-17.0,-11.0,-14.0,-20.0,-34.0,0.0,16.0,0.0,0.0,0.0,0.0,0.0,0.0,0.0,0.0,0
-48.0,-14.0,8.0,-29.0,-20.0,-31.0,-10.0,3.0,0.0,0.0,0.0,0.0,0.0,0.0,0.0,0.0,0
-52.0,-22.0,2.0,-38.0,-25.0,-28.0,-9.0,-14.0,0.0,0.0,0.0,0.0,0.0,0.0,0.0,0.0,0
-67.0,-29.0,-1.0,-42.0,-20.0,-28.0,-5.0,-22.0,0.0,0.0,0.0,0.0,0.0,0.0,0.0,0.0,0
-44.0,-36.0,-3.0,-41.0,-16.0,-30.0,-11.0,-36.0,0.0,0.0,0.0,0.0,0.0,0.0,0.0,0.0,0
9.0,-20.0,12.0,-34.0,-11.0,-22.0,-10.0,-61.0,0.0,0.0,0.0,0.0,0.0,0.0,0.0,0.0,0
26.0,-21.0,7.0,-29.0,-15.0,-30.0,-12.0,-78.0,0.0,0.0,0.0,0.0,0.0,0.0,0.0,0.0,0
18.0,-27.0,-30.0,-29.0,-26.0,-32.0,-20.0,-79.0,0.0,0.0,0.0,0.0,0.0,0.0,0.0,0.0,0
28.0,-18.0,-41.0,-19.0,-17.0,-29.0,-18.0,-82.0,0.0,0.0,0.0,0.0,0.0,0.0,0.0,0.0,0
38.0,-15.0,-42.0,-14.0,-12.0,-30.0,-23.0,-78.0,0.0,0.0,0.0,0.0,0.0,0.0,0.0,0.0,0
33.0,-19.0,-48.0,-28.0,-21.0,-30.0,-32.0,-73.0,0.0,0.0,0.0,0.0,0.0,0.0,0.0,0.0,0
11.0,-45.0,-49.0,-24.0,-26.0,-24.0,-36.0,-64.0,0.0,0.0,0.0,0.0,0.0,0.0,0.0,0.0,0
-10.0,-97.0,-69.0,-35.0,-40.0,-36.0,-37.0,-51.0,0.0,0.0,0.0,0.0,0.0,0.0,0.0,0.0,0
-34.0,-95.0,-79.0,-40.0,-43.0,-45.0,-34.0,-28.0,0.0,0.0,0.0,0.0,0.0,0.0,0.0,0.0,0
-35.0,-66.0,-71.0,-48.0,-61.0,-50.0,-34.0,-18.0,0.0,0.0,0.0,0.0,0.0,0.0,0.0,0.0,0
-3.0,-35.0,-59.0,-51.0,-72.0,-46.0,-39.0,-7.0,0.0,0.0,0.0,0.0,0.0,0.0,0.0,0.0,0
12.0,-10.0,-46.0,-54.0,-72.0,-49.0,-38.0,-2.0,0.0,0.0,0.0,0.0,0.0,0.0,0.0,0.0,0
14.0,18.0,-35.0,-60.0,-72.0,-52.0,-30.0,3.0,0.0,0.0,0.0,0.0,0.0,0.0,0.0,0.0,0
9.0,27.0,-26.0,-63.0,-81.0,-53.0,-26.0,13.0,0.0,0.0,0.0,0.0,0.0,0.0,0.0,0.0,0
-19.0,21.0,-14.0,-59.0,-75.0,-56.0,-24.0,17.0,0.0,0.0,0.0,0.0,0.0,0.0,0.0,0.0,0
-34.0,9.0,-12.0,-59.0,-67.0,-56.0,-21.0,9.0,0.0,0.0,0.0,0.0,0.0,0.0,0.0,0.0,0
-50.0,0.0,-9.0,-49.0,-52.0,-56.0,-24.0,-1.0,0.0,0.0,0.0,0.0,0.0,0.0,0.0,0.0,0
-56.0,-13.0,-2.0,-39.0,-30.0,-46.0,-21.0,-15.0,0.0,0.0,0.0,0.0,0.0,0.0,0.0,0.0,0
-81.0,-41.0,-17.0,-55.0,-21.0,-41.0,-26.0,-24.0,0.0,0.0,0.0,0.0,0.0,0.0,0.0,0.0,0
-95.0,-52.0,-21.0,-63.0,-26.0,-38.0,-28.0,-40.0,0.0,0.0,0.0,0.0,0.0,0.0,0.0,0.0,0
-82.0,-43.0,3.0,-47.0,-20.0,-32.0,-31.0,-57.0,0.0,0.0,0.0,0.0,0.0,0.0,0.0,0.0,0
-49.0,-38.0,-2.0,-46.0,-15.0,-26.0,-29.0,-69.0,0.0,0.0,0.0,0.0,0.0,0.0,0.0,0.0,0
-49.0,-35.0,-40.0,-58.0,-24.0,-21.0,-29.0,-79.0,0.0,0.0,0.0,0.0,0.0,0.0,0.0,0.0,0
-44.0,-43.0,-61.0,-55.0,-23.0,-21.0,-31.0,-88.0,0.0,0.0,0.0,0.0,0.0,0.0,0.0,0.0,0
-53.0,-54.0,-41.0,-36.0,-21.0,-12.0,-32.0,-85.0,0.0,0.0,0.0,0.0,0.0,0.0,0.0,0.0,0
-63.0,-62.0,-38.0,-22.0,-25.0,-12.0,-33.0,-70.0,0.0,0.0,0.0,0.0,0.0,0.0,0.0,0.0,0
-61.0,-74.0,-53.0,-24.0,-32.0,-13.0,-34.0,-58.0,0.0,0.0,0.0,0.0,0.0,0.0,0.0,0.0,0
-44.0,-107.0,-74.0,-25.0,-35.0,-12.0,-37.0,-41.0,0.0,0.0,0.0,0.0,0.0,0.0,0.0,0.0,0
-68.0,-113.0,-96.0,-30.0,-29.0,-17.0,-40.0,-18.0,0.0,0.0,0.0,0.0,0.0,0.0,0.0,0.0,0
-45.0,-79.0,-99.0,-35.0,-30.0,-31.0,-41.0,-3.0,0.0,0.0,0.0,0.0,0.0,0.0,0.0,0.0,0
0.0,-21.0,-85.0,-42.0,-34.0,-34.0,-41.0,5.0,0.0,0.0,0.0,0.0,0.0,0.0,0.0,0.0,0
22.0,16.0,-69.0,-33.0,-35.0,-37.0,-37.0,17.0,0.0,0.0,0.0,0.0,0.0,0.0,0.0,0.0,0
35.0,32.0,-67.0,-25.0,-32.0,-36.0,-38.0,22.0,0.0,0.0,0.0,0.0,0.0,0.0,0.0,0.0,0
24.0,28.0,-72.0,-30.0,-43.0,-34.0,-34.0,22.0,0.0,0.0,0.0,0.0,0.0,0.0,0.0,0.0,0
-14.0,26.0,-57.0,-41.0,-47.0,-40.0,-33.0,24.0,0.0,0.0,0.0,0.0,0.0,0.0,0.0,0.0,0
-29.0,38.0,-20.0,-39.0,-47.0,-37.0,-36.0,23.0,0.0,0.0,0.0,0.0,0.0,0.0,0.0,0.0,0
-26.0,2.0,6.0,-37.0,-38.0,-33.0,-36.0,12.0,0.0,0.0,0.0,0.0,0.0,0.0,0.0,0.0,0
-36.0,-53.0,26.0,-32.0,-40.0,-35.0,-27.0,3.0,0.0,0.0,0.0,0.0,0.0,0.0,0.0,0.0,0
-81.0,-101.0,50.0,-11.0,-33.0,-33.0,-32.0,-10.0,0.0,0.0,0.0,0.0,0.0,0.0,0.0,0.0,0
-118.0,-131.0,67.0,18.0,-27.0,-23.0,-26.0,-29.0,0.0,0.0,0.0,0.0,0.0,0.0,0.0,0.0,0
-106.0,-133.0,57.0,26.0,-10.0,-17.0,-27.0,-50.0,0.0,0.0,0.0,0.0,0.0,0.0,0.0,0.0,0
-78.0,-137.0,2.0,22.0,-6.0,-25.0,-39.0,-63.0,0.0,0.0,0.0,0.0,0.0,0.0,0.0,0.0,0
-81.0,-142.0,-81.0,-8.0,-17.0,-21.0,-44.0,-79.0,0.0,0.0,0.0,0.0,0.0,0.0,0.0,0.0,0
-63.0,-113.0,-91.0,-40.0,-29.0,-14.0,-47.0,-89.0,0.0,0.0,0.0,0.0,0.0,0.0,0.0,0.0,0
-38.0,-67.0,-56.0,-44.0,-27.0,-17.0,-47.0,-89.0,0.0,0.0,0.0,0.0,0.0,0.0,0.0,0.0,0
-25.0,9.0,-35.0,-34.0,-27.0,-13.0,-44.0,-78.0,0.0,0.0,0.0,0.0,0.0,0.0,0.0,0.0,0
-5.0,57.0,-36.0,-38.0,-27.0,-17.0,-43.0,-69.0,0.0,0.0,0.0,0.0,0.0,0.0,0.0,0.0,0
15.0,40.0,-61.0,-52.0,-34.0,-16.0,-39.0,-47.0,0.0,0.0,0.0,0.0,0.0,0.0,0.0,0.0,0
-32.0,16.0,-73.0,-66.0,-40.0,-24.0,-38.0,-25.0,0.0,0.0,0.0,0.0,0.0,0.0,0.0,0.0,0
-52.0,23.0,-62.0,-52.0,-40.0,-29.0,-37.0,-8.0,0.0,0.0,0.0,0.0,0.0,0.0,0.0,0.0,0
-37.0,13.0,-91.0,-44.0,-46.0,-34.0,-42.0,1.0,0.0,0.0,0.0,0.0,0.0,0.0,0.0,0.0,0
-22.0,-3.0,-96.0,-38.0,-37.0,-36.0,-37.0,8.0,0.0,0.0,0.0,0.0,0.0,0.0,0.0,0.0,0
9.0,7.0,-33.0,-20.0,-32.0,-34.0,-25.0,15.0,0.0,0.0,0.0,0.0,0.0,0.0,0.0,0.0,0
8.0,5.0,23.0,-14.0,-31.0,-36.0,-28.0,14.0,0.0,0.0,0.0,0.0,0.0,0.0,0.0,0.0,0
-21.0,-20.0,17.0,-22.0,-46.0,-52.0,-37.0,11.0,0.0,0.0,0.0,0.0,0.0,0.0,0.0,0.0,0
-36.0,-37.0,0.0,-42.0,-51.0,-52.0,-43.0,7.0,0.0,0.0,0.0,0.0,0.0,0.0,0.0,0.0,0
-24.0,-26.0,19.0,-34.0,-34.0,-45.0,-37.0,-1.0,0.0,0.0,0.0,0.0,0.0,0.0,0.0,0.0,0
-1.0,-3.0,56.0,-12.0,-25.0,-41.0,-33.0,-8.0,0.0,0.0,0.0,0.0,0.0,0.0,0.0,0.0,0
-16.0,8.0,44.0,-18.0,-29.0,-43.0,-27.0,-20.0,0.0,0.0,0.0,0.0,0.0,0.0,0.0,0.0,0
-11.0,5.0,2.0,-42.0,-35.0,-34.0,-31.0,-36.0,0.0,0.0,0.0,0.0,0.0,0.0,0.0,0.0,0
-18.0,-8.0,-29.0,-47.0,-36.0,-32.0,-27.0,-52.0,0.0,0.0,0.0,0.0,0.0,0.0,0.0,0.0,0
-17.0,-16.0,-58.0,-43.0,-35.0,-31.0,-25.0,-60.0,0.0,0.0,0.0,0.0,0.0,0.0,0.0,0.0,0
-29.0,-19.0,-55.0,-51.0,-28.0,-30.0,-29.0,-75.0,0.0,0.0,0.0,0.0,0.0,0.0,0.0,0.0,0
-10.0,-22.0,-43.0,-34.0,-24.0,-33.0,-31.0,-80.0,0.0,0.0,0.0,0.0,0.0,0.0,0.0,0.0,0
7.0,-40.0,-47.0,-26.0,-31.0,-37.0,-32.0,-76.0,0.0,0.0,0.0,0.0,0.0,0.0,0.0,0.0,0
-25.0,-55.0,-61.0,-28.0,-25.0,-39.0,-27.0,-75.0,0.0,0.0,0.0,0.0,0.0,0.0,0.0,0.0,0
-39.0,-67.0,-77.0,-39.0,-34.0,-43.0,-33.0,-64.0,0.0,0.0,0.0,0.0,0.0,0.0,0.0,0.0,0
-30.0,-88.0,-97.0,-54.0,-45.0,-53.0,-29.0,-42.0,0.0,0.0,0.0,0.0,0.0,0.0,0.0,0.0,0
-57.0,-94.0,-95.0,-57.0,-42.0,-56.0,-28.0,-28.0,0.0,0.0,0.0,0.0,0.0,0.0,0.0,0.0,0
-68.0,-76.0,-85.0,-62.0,-55.0,-59.0,-29.0,-22.0,0.0,0.0,0.0,0.0,0.0,0.0,0.0,0.0,0
-69.0,-72.0,-67.0,-70.0,-51.0,-63.0,-23.0,-7.0,0.0,0.0,0.0,0.0,0.0,0.0,0.0,0.0,0
-75.0,-73.0,-42.0,-60.0,-51.0,-57.0,-16.0,5.0,0.0,0.0,0.0,0.0,0.0,0.0,0.0,0.0,0
-65.0,-66.0,-30.0,-29.0,-35.0,-45.0,-15.0,15.0,0.0,0.0,0.0,0.0,0.0,0.0,0.0,0.0,0
-49.0,-59.0,-36.0,-18.0,-26.0,-44.0,-15.0,15.0,0.0,0.0,0.0,0.0,0.0,0.0,0.0,0.0,0
-55.0,-47.0,-11.0,-8.0,-18.0,-40.0,-16.0,17.0,0.0,0.0,0.0,0.0,0.0,0.0,0.0,0.0,0
-45.0,-21.0,30.0,13.0,-10.0,-31.0,-20.0,6.0,0.0,0.0,0.0,0.0,0.0,0.0,0.0,0.0,0
-40.0,6.0,32.0,12.0,0.0,-28.0,-24.0,-7.0,0.0,0.0,0.0,0.0,0.0,0.0,0.0,0.0,0
-48.0,3.0,20.0,-6.0,-14.0,-23.0,-23.0,-19.0,0.0,0.0,0.0,0.0,0.0,0.0,0.0,0.0,0
-74.0,-24.0,-5.0,-31.0,-22.0,-22.0,-19.0,-32.0,0.0,0.0,0.0,0.0,0.0,0.0,0.0,0.0,0
-72.0,-34.0,7.0,-33.0,-25.0,-24.0,-35.0,-44.0,0.0,0.0,0.0,0.0,0.0,0.0,0.0,0.0,0
-42.0,-23.0,45.0,-13.0,-19.0,-16.0,-33.0,-66.0,0.0,0.0,0.0,0.0,0.0,0.0,0.0,0.0,0
-30.0,-31.0,14.0,-30.0,-21.0,-15.0,-34.0,-77.0,0.0,0.0,0.0,0.0,0.0,0.0,0.0,0.0,0
-33.0,-42.0,-30.0,-42.0,-19.0,-14.0,-41.0,-81.0,0.0,0.0,0.0,0.0,0.0,0.0,0.0,0.0,0
-11.0,-32.0,-59.0,-40.0,-17.0,-9.0,-41.0,-85.0,0.0,0.0,0.0,0.0,0.0,0.0,0.0,0.0,0
16.0,-29.0,-70.0,-46.0,-16.0,-10.0,-41.0,-80.0,0.0,0.0,0.0,0.0,0.0,0.0,0.0,0.0,0
25.0,-43.0,-71.0,-57.0,-24.0,-12.0,-36.0,-71.0,0.0,0.0,0.0,0.0,0.0,0.0,0.0,0.0,0
24.0,-85.0,-82.0,-66.0,-31.0,-18.0,-37.0,-69.0,0.0,0.0,0.0,0.0,0.0,0.0,0.0,0.0,0
-3.0,-104.0,-73.0,-62.0,-34.0,-27.0,-45.0,-55.0,0.0,0.0,0.0,0.0,0.0,0.0,0.0,0.0,0
-41.0,-64.0,-56.0,-45.0,-40.0,-27.0,-36.0,-34.0,0.0,0.0,0.0,0.0,0.0,0.0,0.0,0.0,0
-48.0,-35.0,-59.0,-48.0,-33.0,-27.0,-35.0,-25.0,0.0,0.0,0.0,0.0,0.0,0.0,0.0,0.0,0
-50.0,-14.0,-51.0,-25.0,-16.0,-22.0,-34.0,-14.0,0.0,0.0,0.0,0.0,0.0,0.0,0.0,0.0,0
-53.0,-21.0,-42.0,-22.0,-18.0,-22.0,-29.0,-10.0,0.0,0.0,0.0,0.0,0.0,0.0,0.0,0.0,0
-32.0,-20.0,-56.0,-40.0,-35.0,-26.0,-25.0,-6.0,0.0,0.0,0.0,0.0,0.0,0.0,0.0,0.0,0
-11.0,-16.0,-67.0,-33.0,-38.0,-29.0,-22.0,-3.0,0.0,0.0,0.0,0.0,0.0,0.0,0.0,0.0,0
-20.0,1.0,-50.0,-24.0,-40.0,-34.0,-22.0,0.0,0.0,0.0,0.0,0.0,0.0,0.0,0.0,0.0,0
-34.0,-12.0,-31.0,-35.0,-38.0,-36.0,-21.0,-8.0,0.0,0.0,0.0,0.0,0.0,0.0,0.0,0.0,0
-44.0,-45.0,-36.0,-60.0,-39.0,-39.0,-25.0,-18.0,0.0,0.0,0.0,0.0,0.0,0.0,0.0,0.0,0
-41.0,-50.0,-34.0,-77.0,-41.0,-44.0,-31.0,-28.0,0.0,0.0,0.0,0.0,0.0,0.0,0.0,0.0,0
-56.0,-21.0,4.0,-63.0,-34.0,-48.0,-38.0,-37.0,0.0,0.0,0.0,0.0,0.0,0.0,0.0,0.0,0
-61.0,0.0,34.0,-44.0,-32.0,-40.0,-37.0,-54.0,0.0,0.0,0.0,0.0,0.0,0.0,0.0,0.0,0
-49.0,-4.0,-12.0,-51.0,-31.0,-37.0,-38.0,-63.0,0.0,0.0,0.0,0.0,0.0,0.0,0.0,0.0,0
-22.0,-9.0,-26.0,-46.0,-25.0,-35.0,-41.0,-78.0,0.0,0.0,0.0,0.0,0.0,0.0,0.0,0.0,0
-7.0,-1.0,14.0,-33.0,-17.0,-41.0,-39.0,-83.0,0.0,0.0,0.0,0.0,0.0,0.0,0.0,0.0,0
13.0,2.0,44.0,-8.0,-11.0,-24.0,-43.0,-92.0,0.0,0.0,0.0,0.0,0.0,0.0,0.0,0.0,0
40.0,-4.0,45.0,9.0,-1.0,-17.0,-40.0,-91.0,0.0,0.0,0.0,0.0,0.0,0.0,0.0,0.0,0
27.0,-19.0,22.0,28.0,11.0,-15.0,-33.0,-75.0,0.0,0.0,0.0,0.0,0.0,0.0,0.0,0.0,0
-23.0,-47.0,-25.0,34.0,14.0,-11.0,-31.0,-66.0,0.0,0.0,0.0,0.0,0.0,0.0,0.0,0.0,0
-65.0,-98.0,-53.0,20.0,5.0,-22.0,-24.0,-52.0,0.0,0.0,0.0,0.0,0.0,0.0,0.0,0.0,0
-98.0,-113.0,-78.0,-12.0,-16.0,-30.0,-29.0,-28.0,0.0,0.0,0.0,0.0,0.0,0.0,0.0,0.0,0
-80.0,-81.0,-62.0,-23.0,-29.0,-26.0,-30.0,-14.0,0.0,0.0,0.0,0.0,0.0,0.0,0.0,0.0,0
-63.0,-43.0,-30.0,-15.0,-31.0,-38.0,-32.0,-4.0,0.0,0.0,0.0,0.0,0.0,0.0,0.0,0.0,0
-74.0,-34.0,-7.0,8.0,-30.0,-42.0,-27.0,2.0,0.0,0.0,0.0,0.0,0.0,0.0,0.0,0.0,0
-53.0,-22.0,-6.0,-11.0,-41.0,-40.0,-25.0,10.0,0.0,0.0,0.0,0.0,0.0,0.0,0.0,0.0,0
-35.0,-18.0,-7.0,-48.0,-54.0,-50.0,-19.0,27.0,0.0,0.0,0.0,0.0,0.0,0.0,0.0,0.0,0
-71.0,-8.0,-4.0,-67.0,-69.0,-53.0,-18.0,23.0,0.0,0.0,0.0,0.0,0.0,0.0,0.0,0.0,0
-102.0,-4.0,6.0,-65.0,-77.0,-58.0,-27.0,13.0,0.0,0.0,0.0,0.0,0.0,0.0,0.0,0.0,0
-79.0,6.0,12.0,-70.0,-75.0,-55.0,-26.0,-1.0,0.0,0.0,0.0,0.0,0.0,0.0,0.0,0.0,0
-16.0,1.0,-21.0,-96.0,-81.0,-52.0,-31.0,-12.0,0.0,0.0,0.0,0.0,0.0,0.0,0.0,0.0,0
21.0,1.0,-65.0,-107.0,-77.0,-57.0,-31.0,-26.0,0.0,0.0,0.0,0.0,0.0,0.0,0.0,0.0,0
13.0,17.0,-73.0,-110.0,-76.0,-50.0,-39.0,-32.0,0.0,0.0,0.0,0.0,0.0,0.0,0.0,0.0,0
14.0,13.0,-77.0,-106.0,-72.0,-42.0,-45.0,-50.0,0.0,0.0,0.0,0.0,0.0,0.0,0.0,0.0,0
25.0,-10.0,-84.0,-98.0,-67.0,-38.0,-35.0,-60.0,0.0,0.0,0.0,0.0,0.0,0.0,0.0,0.0,0
6.0,-4.0,-82.0,-96.0,-66.0,-38.0,-45.0,-70.0,0.0,0.0,0.0,0.0,0.0,0.0,0.0,0.0,0
2.0,-5.0,-61.0,-74.0,-55.0,-30.0,-47.0,-79.0,0.0,0.0,0.0,0.0,0.0,0.0,0.0,0.0,0
4.0,-8.0,-13.0,-38.0,-44.0,-20.0,-41.0,-66.0,0.0,0.0,0.0,0.0,0.0,0.0,0.0,0.0,0
-30.0,-27.0,-8.0,-30.0,-39.0,-13.0,-44.0,-56.0,0.0,0.0,0.0,0.0,0.0,0.0,0.0,0.0,0
-60.0,-51.0,-34.0,-29.0,-35.0,-6.0,-49.0,-48.0,0.0,0.0,0.0,0.0,0.0,0.0,0.0,0.0,0
-59.0,-58.0,-26.0,-6.0,-25.0,-1.0,-36.0,-31.0,0.0,0.0,0.0,0.0,0.0,0.0,0.0,0.0,0
-87.0,-52.0,-1.0,-5.0,-22.0,-3.0,-34.0,-14.0,0.0,0.0,0.0,0.0,0.0,0.0,0.0,0.0,0
-99.0,-37.0,18.0,9.0,-22.0,-3.0,-40.0,-10.0,0.0,0.0,0.0,0.0,0.0,0.0,0.0,0.0,0
-107.0,-47.0,29.0,23.0,-18.0,-10.0,-39.0,1.0,0.0,0.0,0.0,0.0,0.0,0.0,0.0,0.0,0
-102.0,-57.0,9.0,12.0,-21.0,-17.0,-38.0,8.0,0.0,0.0,0.0,0.0,0.0,0.0,0.0,0.0,0
-81.0,-66.0,-40.0,-15.0,-26.0,-10.0,-31.0,8.0,0.0,0.0,0.0,0.0,0.0,0.0,0.0,0.0,0
-53.0,-64.0,-64.0,-28.0,-31.0,-21.0,-32.0,2.0,0.0,0.0,0.0,0.0,0.0,0.0,0.0,0.0,0
-43.0,-66.0,-79.0,-36.0,-32.0,-23.0,-30.0,7.0,0.0,0.0,0.0,0.0,0.0,0.0,0.0,0.0,0
-42.0,-57.0,-89.0,-41.0,-28.0,-28.0,-26.0,0.0,0.0,0.0,0.0,0.0,0.0,0.0,0.0,0.0,0
-36.0,-43.0,-89.0,-50.0,-33.0,-36.0,-23.0,-9.0,0.0,0.0,0.0,0.0,0.0,0.0,0.0,0.0,0
-32.0,-53.0,-102.0,-53.0,-46.0,-45.0,-25.0,-22.0,0.0,0.0,0.0,0.0,0.0,0.0,0.0,0.0,0
-53.0,-47.0,-120.0,-57.0,-43.0,-43.0,-28.0,-34.0,0.0,0.0,0.0,0.0,0.0,0.0,0.0,0.0,0
-61.0,-45.0,-120.0,-56.0,-37.0,-34.0,-23.0,-53.0,0.0,0.0,0.0,0.0,0.0,0.0,0.0,0.0,0
-68.0,-45.0,-110.0,-48.0,-24.0,-33.0,-24.0,-74.0,0.0,0.0,0.0,0.0,0.0,0.0,0.0,0.0,0
-48.0,-31.0,-74.0,-27.0,-16.0,-26.0,-26.0,-92.0,0.0,0.0,0.0,0.0,0.0,0.0,0.0,0.0,0
-27.0,-14.0,-43.0,-4.0,-14.0,-22.0,-16.0,-90.0,0.0,0.0,0.0,0.0,0.0,0.0,0.0,0.0,0
-1.0,-6.0,-26.0,-10.0,-23.0,-27.0,-29.0,-99.0,0.0,0.0,0.0,0.0,0.0,0.0,0.0,0.0,0
-4.0,-12.0,-20.0,-38.0,-34.0,-39.0,-32.0,-99.0,0.0,0.0,0.0,0.0,0.0,0.0,0.0,0.0,0
-13.0,-16.0,-6.0,-34.0,-34.0,-51.0,-31.0,-93.0,0.0,0.0,0.0,0.0,0.0,0.0,0.0,0.0,0
18.0,2.0,32.0,-10.0,-30.0,-47.0,-30.0,-77.0,0.0,0.0,0.0,0.0,0.0,0.0,0.0,0.0,0
11.0,0.0,31.0,-11.0,-32.0,-43.0,-34.0,-60.0,0.0,0.0,0.0,0.0,0.0,0.0,0.0,0.0,0
-31.0,-18.0,-2.0,-30.0,-38.0,-56.0,-31.0,-41.0,0.0,0.0,0.0,0.0,0.0,0.0,0.0,0.0,0
-42.0,-25.0,7.0,-24.0,-39.0,-53.0,-27.0,-24.0,0.0,0.0,0.0,0.0,0.0,0.0,0.0,0.0,0
-34.0,-28.0,5.0,-35.0,-32.0,-43.0,-26.0,-12.0,0.0,0.0,0.0,0.0,0.0,0.0,0.0,0.0,0
-26.0,-31.0,-30.0,-71.0,-46.0,-49.0,-17.0,-9.0,0.0,0.0,0.0,0.0,0.0,0.0,0.0,0.0,0
-9.0,-31.0,-34.0,-77.0,-47.0,-41.0,-20.0,-1.0,0.0,0.0,0.0,0.0,0.0,0.0,0.0,0.0,0
-14.0,-43.0,-19.0,-53.0,-34.0,-41.0,-14.0,14.0,0.0,0.0,0.0,0.0,0.0,0.0,0.0,0.0,0
-41.0,-44.0,-25.0,-45.0,-33.0,-44.0,-18.0,14.0,0.0,0.0,0.0,0.0,0.0,0.0,0.0,0.0,0
-51.0,-48.0,-54.0,-46.0,-29.0,-48.0,-24.0,12.0,0.0,0.0,0.0,0.0,0.0,0.0,0.0,0.0,0
-57.0,-48.0,-90.0,-45.0,-25.0,-44.0,-25.0,-2.0,0.0,0.0,0.0,0.0,0.0,0.0,0.0,0.0,0
-41.0,-34.0,-92.0,-62.0,-18.0,-44.0,-25.0,-15.0,0.0,0.0,0.0,0.0,0.0,0.0,0.0,0.0,0
-31.0,-25.0,-82.0,-70.0,-20.0,-44.0,-25.0,-18.0,0.0,0.0,0.0,0.0,0.0,0.0,0.0,0.0,0
-31.0,-31.0,-75.0,-65.0,-23.0,-37.0,-26.0,-38.0,0.0,0.0,0.0,0.0,0.0,0.0,0.0,0.0,0
-8.0,-36.0,-49.0,-34.0,-8.0,-33.0,-20.0,-59.0,0.0,0.0,0.0,0.0,0.0,0.0,0.0,0.0,0
-6.0,-45.0,-41.0,-6.0,10.0,-35.0,-29.0,-79.0,0.0,0.0,0.0,0.0,0.0,0.0,0.0,0.0,0
-40.0,-64.0,-24.0,17.0,21.0,-29.0,-38.0,-96.0,0.0,0.0,0.0,0.0,0.0,0.0,0.0,0.0,0
-35.0,-64.0,10.0,24.0,18.0,-25.0,-37.0,-96.0,0.0,0.0,0.0,0.0,0.0,0.0,0.0,0.0,0
-7.0,-52.0,8.0,6.0,4.0,-28.0,-35.0,-80.0,0.0,0.0,0.0,0.0,0.0,0.0,0.0,0.0,0
-11.0,-23.0,-14.0,-2.0,-3.0,-24.0,-35.0,-64.0,0.0,0.0,0.0,0.0,0.0,0.0,0.0,0.0,0
-20.0,-7.0,-8.0,-18.0,-9.0,-23.0,-36.0,-57.0,0.0,0.0,0.0,0.0,0.0,0.0,0.0,0.0,0
-12.0,0.0,3.0,-36.0,-25.0,-39.0,-40.0,-37.0,0.0,0.0,0.0,0.0,0.0,0.0,0.0,0.0,0
-23.0,14.0,-1.0,-39.0,-46.0,-52.0,-38.0,-25.0,0.0,0.0,0.0,0.0,0.0,0.0,0.0,0.0,0
-30.0,7.0,-16.0,-39.0,-46.0,-43.0,-40.0,-10.0,0.0,0.0,0.0,0.0,0.0,0.0,0.0,0.0,0
-43.0,-8.0,-22.0,-42.0,-39.0,-35.0,-36.0,3.0,0.0,0.0,0.0,0.0,0.0,0.0,0.0,0.0,0
-57.0,-24.0,-22.0,-31.0,-33.0,-36.0,-37.0,3.0,0.0,0.0,0.0,0.0,0.0,0.0,0.0,0.0,0
-58.0,-62.0,-42.0,-41.0,-53.0,-49.0,-45.0,12.0,0.0,0.0,0.0,0.0,0.0,0.0,0.0,0.0,0
-51.0,-87.0,-69.0,-59.0,-71.0,-58.0,-40.0,23.0,0.0,0.0,0.0,0.0,0.0,0.0,0.0,0.0,0
-52.0,-70.0,-76.0,-80.0,-73.0,-54.0,-41.0,27.0,0.0,0.0,0.0,0.0,0.0,0.0,0.0,0.0,0
-47.0,-58.0,-69.0,-88.0,-75.0,-52.0,-39.0,19.0,0.0,0.0,0.0,0.0,0.0,0.0,0.0,0.0,0
-40.0,-49.0,-70.0,-91.0,-64.0,-53.0,-32.0,6.0,0.0,0.0,0.0,0.0,0.0,0.0,0.0,0.0,0
-16.0,-28.0,-82.0,-102.0,-71.0,-51.0,-29.0,1.0,0.0,0.0,0.0,0.0,0.0,0.0,0.0,0.0,0
-7.0,-12.0,-71.0,-94.0,-69.0,-53.0,-33.0,-12.0,0.0,0.0,0.0,0.0,0.0,0.0,0.0,0.0,0
-26.0,-4.0,-48.0,-84.0,-65.0,-54.0,-41.0,-32.0,0.0,0.0,0.0,0.0,0.0,0.0,0.0,0.0,0
-26.0,-10.0,-41.0,-80.0,-65.0,-47.0,-42.0,-54.0,0.0,0.0,0.0,0.0,0.0,0.0,0.0,0.0,0
-23.0,-13.0,-44.0,-88.0,-67.0,-44.0,-51.0,-78.0,0.0,0.0,0.0,0.0,0.0,0.0,0.0,0.0,0
-34.0,-4.0,-48.0,-79.0,-64.0,-46.0,-55.0,-100.0,0.0,0.0,0.0,0.0,0.0,0.0,0.0,0.0,0
-31.0,-14.0,-37.0,-59.0,-53.0,-44.0,-56.0,-113.0,0.0,0.0,0.0,0.0,0.0,0.0,0.0,0.0,0
-23.0,-56.0,-31.0,-42.0,-48.0,-40.0,-60.0,-101.0,0.0,0.0,0.0,0.0,0.0,0.0,0.0,0.0,0
-33.0,-79.0,-29.0,-24.0,-41.0,-40.0,-51.0,-78.0,0.0,0.0,0.0,0.0,0.0,0.0,0.0,0.0,0
-37.0,-90.0,-20.0,10.0,-28.0,-30.0,-41.0,-59.0,0.0,0.0,0.0,0.0,0.0,0.0,0.0,0.0,0
-37.0,-123.0,-43.0,26.0,-19.0,-24.0,-39.0,-42.0,0.0,0.0,0.0,0.0,0.0,0.0,0.0,0.0,0
-61.0,-121.0,-37.0,30.0,-22.0,-24.0,-40.0,-23.0,0.0,0.0,0.0,0.0,0.0,0.0,0.0,0.0,0
-70.0,-109.0,-8.0,28.0,-32.0,-28.0,-41.0,-23.0,0.0,0.0,0.0,0.0,0.0,0.0,0.0,0.0,0
-69.0,-86.0,10.0,11.0,-35.0,-38.0,-42.0,-28.0,0.0,0.0,0.0,0.0,0.0,0.0,0.0,0.0,0
-44.0,-36.0,11.0,5.0,-35.0,-37.0,-38.0,-13.0,0.0,0.0,0.0,0.0,0.0,0.0,0.0,0.0,0
-19.0,-4.0,-1.0,1.0,-38.0,-40.0,-35.0,-1.0,0.0,0.0,0.0,0.0,0.0,0.0,0.0,0.0,0
-4.0,-2.0,-17.0,7.0,-37.0,-47.0,-32.0,9.0,0.0,0.0,0.0,0.0,0.0,0.0,0.0,0.0,0
-16.0,0.0,-38.0,4.0,-45.0,-44.0,-28.0,18.0,0.0,0.0,0.0,0.0,0.0,0.0,0.0,0.0,0
-10.0,10.0,-70.0,-22.0,-58.0,-47.0,-26.0,7.0,0.0,0.0,0.0,0.0,0.0,0.0,0.0,0.0,0
-5.0,9.0,-82.0,-42.0,-70.0,-44.0,-25.0,-6.0,0.0,0.0,0.0,0.0,0.0,0.0,0.0,0.0,0
-9.0,-2.0,-96.0,-49.0,-63.0,-41.0,-23.0,-14.0,0.0,0.0,0.0,0.0,0.0,0.0,0.0,0.0,0
-32.0,-18.0,-79.0,-47.0,-54.0,-43.0,-17.0,-23.0,0.0,0.0,0.0,0.0,0.0,0.0,0.0,0.0,0
-44.0,-19.0,-61.0,-38.0,-45.0,-35.0,-22.0,-41.0,0.0,0.0,0.0,0.0,0.0,0.0,0.0,0.0,0
-32.0,-25.0,-39.0,-33.0,-30.0,-36.0,-24.0,-53.0,0.0,0.0,0.0,0.0,0.0,0.0,0.0,0.0,0
-11.0,-17.0,8.0,-7.0,-15.0,-32.0,-26.0,-61.0,0.0,0.0,0.0,0.0,0.0,0.0,0.0,0.0,0
-10.0,4.0,62.0,36.0,11.0,-25.0,-34.0,-71.0,0.0,0.0,0.0,0.0,0.0,0.0,0.0,0.0,0
-6.0,22.0,105.0,56.0,21.0,-22.0,-31.0,-75.0,0.0,0.0,0.0,0.0,0.0,0.0,0.0,0.0,0
-7.0,-1.0,56.0,4.0,-6.0,-28.0,-29.0,-77.0,0.0,0.0,0.0,0.0,0.0,0.0,0.0,0.0,0
-30.0,-37.0,-29.0,-57.0,-31.0,-36.0,-32.0,-78.0,0.0,0.0,0.0,0.0,0.0,0.0,0.0,0.0,0
-28.0,-41.0,-61.0,-79.0,-32.0,-39.0,-36.0,-84.0,0.0,0.0,0.0,0.0,0.0,0.0,0.0,0.0,0
-19.0,-49.0,-44.0,-61.0,-36.0,-33.0,-34.0,-62.0,0.0,0.0,0.0,0.0,0.0,0.0,0.0,0.0,0
-51.0,-45.0,-36.0,-38.0,-38.0,-39.0,-25.0,-35.0,0.0,0.0,0.0,0.0,0.0,0.0,0.0,0.0,0
-75.0,-40.0,-57.0,-40.0,-43.0,-38.0,-31.0,-23.0,0.0,0.0,0.0,0.0,0.0,0.0,0.0,0.0,0
-94.0,-63.0,-80.0,-41.0,-48.0,-35.0,-26.0,-18.0,0.0,0.0,0.0,0.0,0.0,0.0,0.0,0.0,0
-88.0,-67.0,-50.0,-47.0,-52.0,-45.0,-30.0,-18.0,0.0,0.0,0.0,0.0,0.0,0.0,0.0,0.0,0
-57.0,-52.0,-22.0,-45.0,-52.0,-41.0,-30.0,-12.0,0.0,0.0,0.0,0.0,0.0,0.0,0.0,0.0,0
-29.0,-48.0,-26.0,-40.0,-63.0,-45.0,-26.0,-9.0,0.0,0.0,0.0,0.0,0.0,0.0,0.0,0.0,0
-31.0,-44.0,-45.0,-40.0,-62.0,-41.0,-24.0,-13.0,0.0,0.0,0.0,0.0,0.0,0.0,0.0,0.0,0
-31.0,-45.0,-60.0,-36.0,-48.0,-33.0,-29.0,-2.0,0.0,0.0,0.0,0.0,0.0,0.0,0.0,0.0,0
-33.0,-37.0,-56.0,-33.0,-42.0,-32.0,-21.0,-7.0,0.0,0.0,0.0,0.0,0.0,0.0,0.0,0.0,0
-30.0,-47.0,-73.0,-29.0,-42.0,-33.0,-23.0,-26.0,0.0,0.0,0.0,0.0,0.0,0.0,0.0,0.0,0
-42.0,-25.0,-101.0,-44.0,-34.0,-28.0,-24.0,-27.0,0.0,0.0,0.0,0.0,0.0,0.0,0.0,0.0,0
-47.0,8.0,-121.0,-61.0,-34.0,-21.0,-30.0,-40.0,0.0,0.0,0.0,0.0,0.0,0.0,0.0,0.0,0
-31.0,16.0,-101.0,-59.0,-29.0,-29.0,-29.0,-66.0,0.0,0.0,0.0,0.0,0.0,0.0,0.0,0.0,0
-4.0,-6.0,-77.0,-57.0,-26.0,-20.0,-28.0,-71.0,0.0,0.0,0.0,0.0,0.0,0.0,0.0,0.0,0
-9.0,-33.0,-67.0,-52.0,-24.0,-16.0,-26.0,-79.0,0.0,0.0,0.0,0.0,0.0,0.0,0.0,0.0,0
5.0,-57.0,-32.0,-30.0,-10.0,-18.0,-23.0,-90.0,0.0,0.0,0.0,0.0,0.0,0.0,0.0,0.0,0
16.0,-68.0,48.0,38.0,11.0,-14.0,-17.0,-82.0,0.0,0.0,0.0,0.0,0.0,0.0,0.0,0.0,0
15.0,-63.0,113.0,111.0,42.0,-5.0,3.0,-62.0,0.0,0.0,0.0,0.0,0.0,0.0,0.0,0.0,0
6.0,-44.0,85.0,109.0,43.0,-8.0,-7.0,-52.0,0.0,0.0,0.0,0.0,0.0,0.0,0.0,0.0,0
-21.0,-49.0,22.0,35.0,14.0,-19.0,-17.0,-39.0,0.0,0.0,0.0,0.0,0.0,0.0,0.0,0.0,0
-76.0,-41.0,35.0,12.0,-9.0,-28.0,-23.0,-23.0,0.0,0.0,0.0,0.0,0.0,0.0,0.0,0.0,0
-101.0,-47.0,33.0,2.0,-36.0,-37.0,-29.0,-18.0,0.0,0.0,0.0,0.0,0.0,0.0,0.0,0.0,0
-66.0,-9.0,7.0,-45.0,-57.0,-50.0,-34.0,-10.0,0.0,0.0,0.0,0.0,0.0,0.0,0.0,0.0,0
-25.0,22.0,-29.0,-89.0,-71.0,-51.0,-42.0,-6.0,0.0,0.0,0.0,0.0,0.0,0.0,0.0,0.0,0
0.0,12.0,-62.0,-100.0,-75.0,-51.0,-39.0,-5.0,0.0,0.0,0.0,0.0,0.0,0.0,0.0,0.0,0
1.0,10.0,-69.0,-90.0,-68.0,-52.0,-38.0,2.0,0.0,0.0,0.0,0.0,0.0,0.0,0.0,0.0,0
-18.0,7.0,-42.0,-73.0,-66.0,-55.0,-35.0,4.0,0.0,0.0,0.0,0.0,0.0,0.0,0.0,0.0,0
-31.0,-42.0,-38.0,-66.0,-65.0,-66.0,-39.0,-4.0,0.0,0.0,0.0,0.0,0.0,0.0,0.0,0.0,0
-42.0,-60.0,-52.0,-51.0,-64.0,-57.0,-39.0,-12.0,0.0,0.0,0.0,0.0,0.0,0.0,0.0,0.0,0
-50.0,-55.0,-63.0,-32.0,-53.0,-45.0,-36.0,-15.0,0.0,0.0,0.0,0.0,0.0,0.0,0.0,0.0,0
-78.0,-49.0,-53.0,-19.0,-43.0,-49.0,-37.0,-23.0,0.0,0.0,0.0,0.0,0.0,0.0,0.0,0.0,0
-92.0,-61.0,-69.0,-32.0,-43.0,-50.0,-39.0,-39.0,0.0,0.0,0.0,0.0,0.0,0.0,0.0,0.0,0
-90.0,-75.0,-98.0,-60.0,-47.0,-55.0,-46.0,-65.0,0.0,0.0,0.0,0.0,0.0,0.0,0.0,0.0,0
-92.0,-86.0,-93.0,-82.0,-53.0,-47.0,-49.0,-83.0,0.0,0.0,0.0,0.0,0.0,0.0,0.0,0.0,0
-99.0,-69.0,-52.0,-58.0,-37.0,-33.0,-39.0,-82.0,0.0,0.0,0.0,0.0,0.0,0.0,0.0,0.0,0
-70.0,-37.0,-25.0,-6.0,-13.0,-20.0,-27.0,-77.0,0.0,0.0,0.0,0.0,0.0,0.0,0.0,0.0,0
-51.0,-66.0,-99.0,-38.0,-24.0,-30.0,-29.0,-73.0,0.0,0.0,0.0,0.0,0.0,0.0,0.0,0.0,0
-50.0,-74.0,-113.0,-74.0,-38.0,-32.0,-36.0,-69.0,0.0,0.0,0.0,0.0,0.0,0.0,0.0,0.0,0
-16.0,-27.0,-51.0,-60.0,-33.0,-21.0,-29.0,-63.0,0.0,0.0,0.0,0.0,0.0,0.0,0.0,0.0,0
15.0,2.0,-16.0,-51.0,-36.0,-25.0,-25.0,-43.0,0.0,0.0,0.0,0.0,0.0,0.0,0.0,0.0,0
-12.0,15.0,8.0,-46.0,-44.0,-26.0,-26.0,-22.0,0.0,0.0,0.0,0.0,0.0,0.0,0.0,0.0,0
-33.0,19.0,6.0,-45.0,-39.0,-24.0,-24.0,-16.0,0.0,0.0,0.0,0.0,0.0,0.0,0.0,0.0,0
-36.0,30.0,5.0,-38.0,-39.0,-20.0,-31.0,-19.0,0.0,0.0,0.0,0.0,0.0,0.0,0.0,0.0,0
-25.0,48.0,13.0,-18.0,-45.0,-26.0,-32.0,-23.0,0.0,0.0,0.0,0.0,0.0,0.0,0.0,0.0,0
6.0,27.0,19.0,-2.0,-38.0,-23.0,-28.0,-24.0,0.0,0.0,0.0,0.0,0.0,0.0,0.0,0.0,0
22.0,-2.0,26.0,11.0,-35.0,-24.0,-20.0,-16.0,0.0,0.0,0.0,0.0,0.0,0.0,0.0,0.0,0
20.0,-12.0,27.0,16.0,-30.0,-19.0,-15.0,-13.0,0.0,0.0,0.0,0.0,0.0,0.0,0.0,0.0,0
-4.0,-17.0,-5.0,-3.0,-35.0,-16.0,-16.0,-14.0,0.0,0.0,0.0,0.0,0.0,0.0,0.0,0.0,0
-24.0,-24.0,-32.0,-27.0,-42.0,-25.0,-19.0,-25.0,0.0,0.0,0.0,0.0,0.0,0.0,0.0,0.0,0
-35.0,-38.0,-50.0,-39.0,-46.0,-30.0,-12.0,-26.0,0.0,0.0,0.0,0.0,0.0,0.0,0.0,0.0,0
-50.0,-45.0,-72.0,-47.0,-48.0,-28.0,-23.0,-25.0,0.0,0.0,0.0,0.0,0.0,0.0,0.0,0.0,0
-49.0,-40.0,-78.0,-56.0,-55.0,-27.0,-24.0,-39.0,0.0,0.0,0.0,0.0,0.0,0.0,0.0,0.0,0
-47.0,-39.0,-83.0,-70.0,-54.0,-40.0,-31.0,-55.0,0.0,0.0,0.0,0.0,0.0,0.0,0.0,0.0,0
-46.0,-48.0,-99.0,-81.0,-56.0,-39.0,-30.0,-64.0,0.0,0.0,0.0,0.0,0.0,0.0,0.0,0.0,0
-50.0,-43.0,-96.0,-85.0,-44.0,-38.0,-28.0,-67.0,0.0,0.0,0.0,0.0,0.0,0.0,0.0,0.0,0
-22.0,-28.0,-78.0,-73.0,-27.0,-33.0,-32.0,-71.0,0.0,0.0,0.0,0.0,0.0,0.0,0.0,0.0,0
-11.0,-13.0,-41.0,-57.0,-22.0,-26.0,-34.0,-69.0,0.0,0.0,0.0,0.0,0.0,0.0,0.0,0.0,0
-15.0,21.0,0.0,-46.0,-9.0,-26.0,-33.0,-63.0,0.0,0.0,0.0,0.0,0.0,0.0,0.0,0.0,0
-1.0,53.0,61.0,-19.0,-3.0,-27.0,-29.0,-53.0,0.0,0.0,0.0,0.0,0.0,0.0,0.0,0.0,0
16.0,46.0,117.0,17.0,3.0,-26.0,-32.0,-41.0,0.0,0.0,0.0,0.0,0.0,0.0,0.0,0.0,0
-8.0,1.0,113.0,24.0,0.0,-32.0,-30.0,-33.0,0.0,0.0,0.0,0.0,0.0,0.0,0.0,0.0,0
-34.0,-45.0,72.0,21.0,-4.0,-28.0,-23.0,-25.0,0.0,0.0,0.0,0.0,0.0,0.0,0.0,0.0,0
-20.0,-94.0,17.0,33.0,-9.0,-19.0,-19.0,-17.0,0.0,0.0,0.0,0.0,0.0,0.0,0.0,0.0,0
-16.0,-138.0,-43.0,31.0,-9.0,-11.0,-17.0,-4.0,0.0,0.0,0.0,0.0,0.0,0.0,0.0,0.0,0
-33.0,-160.0,-80.0,6.0,-26.0,-17.0,-14.0,-2.0,0.0,0.0,0.0,0.0,0.0,0.0,0.0,0.0,0
-38.0,-130.0,-71.0,-30.0,-41.0,-21.0,-13.0,4.0,0.0,0.0,0.0,0.0,0.0,0.0,0.0,0.0,0
-38.0,-70.0,-42.0,-32.0,-44.0,-20.0,-15.0,0.0,0.0,0.0,0.0,0.0,0.0,0.0,0.0,0.0,0
-34.0,-28.0,-18.0,-30.0,-49.0,-27.0,-19.0,-6.0,0.0,0.0,0.0,0.0,0.0,0.0,0.0,0.0,0
-34.0,-14.0,-23.0,-36.0,-57.0,-30.0,-27.0,-12.0,0.0,0.0,0.0,0.0,0.0,0.0,0.0,0.0,0
-44.0,-24.0,-46.0,-51.0,-68.0,-33.0,-41.0,-34.0,0.0,0.0,0.0,0.0,0.0,0.0,0.0,0.0,0
-65.0,-22.0,-67.0,-65.0,-74.0,-40.0,-53.0,-55.0,0.0,0.0,0.0,0.0,0.0,0.0,0.0,0.0,0
-65.0,-19.0,-84.0,-63.0,-65.0,-38.0,-64.0,-80.0,0.0,0.0,0.0,0.0,0.0,0.0,0.0,0.0,0
-48.0,-13.0,-87.0,-62.0,-54.0,-39.0,-61.0,-80.0,0.0,0.0,0.0,0.0,0.0,0.0,0.0,0.0,0
-26.0,0.0,-60.0,-68.0,-49.0,-37.0,-52.0,-77.0,0.0,0.0,0.0,0.0,0.0,0.0,0.0,0.0,0
-16.0,2.0,-61.0,-65.0,-40.0,-37.0,-52.0,-84.0,0.0,0.0,0.0,0.0,0.0,0.0,0.0,0.0,0
4.0,-4.0,-63.0,-64.0,-39.0,-35.0,-55.0,-84.0,0.0,0.0,0.0,0.0,0.0,0.0,0.0,0.0,0
13.0,-11.0,-49.0,-71.0,-41.0,-33.0,-56.0,-77.0,0.0,0.0,0.0,0.0,0.0,0.0,0.0,0.0,0
-13.0,-23.0,-26.0,-66.0,-30.0,-37.0,-57.0,-66.0,0.0,0.0,0.0,0.0,0.0,0.0,0.0,0.0,0
-26.0,-38.0,-45.0,-68.0,-28.0,-39.0,-57.0,-61.0,0.0,0.0,0.0,0.0,0.0,0.0,0.0,0.0,0
-42.0,-70.0,-103.0,-91.0,-34.0,-40.0,-60.0,-51.0,0.0,0.0,0.0,0.0,0.0,0.0,0.0,0.0,0
-67.0,-79.0,-80.0,-81.0,-34.0,-43.0,-55.0,-37.0,0.0,0.0,0.0,0.0,0.0,0.0,0.0,0.0,0
-64.0,-58.0,-29.0,-65.0,-33.0,-45.0,-44.0,-18.0,0.0,0.0,0.0,0.0,0.0,0.0,0.0,0.0,0
-61.0,-44.0,-24.0,-56.0,-42.0,-39.0,-47.0,-10.0,0.0,0.0,0.0,0.0,0.0,0.0,0.0,0.0,0
-47.0,-32.0,-29.0,-47.0,-51.0,-35.0,-50.0,-5.0,0.0,0.0,0.0,0.0,0.0,0.0,0.0,0.0,0
-19.0,-19.0,-38.0,-39.0,-46.0,-41.0,-38.0,-3.0,0.0,0.0,0.0,0.0,0.0,0.0,0.0,0.0,0
-3.0,-17.0,-61.0,-42.0,-44.0,-39.0,-30.0,-1.0,0.0,0.0,0.0,0.0,0.0,0.0,0.0,0.0,0
-12.0,-11.0,-67.0,-42.0,-42.0,-35.0,-36.0,-7.0,0.0,0.0,0.0,0.0,0.0,0.0,0.0,0.0,0
-13.0,-12.0,-36.0,-24.0,-38.0,-28.0,-43.0,-17.0,0.0,0.0,0.0,0.0,0.0,0.0,0.0,0.0,0
-20.0,-30.0,-9.0,-3.0,-34.0,-39.0,-43.0,-17.0,0.0,0.0,0.0,0.0,0.0,0.0,0.0,0.0,0
-39.0,-50.0,-4.0,5.0,-37.0,-38.0,-33.0,-20.0,0.0,0.0,0.0,0.0,0.0,0.0,0.0,0.0,0
-62.0,-58.0,7.0,32.0,-28.0,-41.0,-27.0,-18.0,0.0,0.0,0.0,0.0,0.0,0.0,0.0,0.0,0
-67.0,-44.0,47.0,68.0,-7.0,-40.0,-31.0,-26.0,0.0,0.0,0.0,0.0,0.0,0.0,0.0,0.0,0
-45.0,-19.0,90.0,111.0,24.0,-22.0,-31.0,-32.0,0.0,0.0,0.0,0.0,0.0,0.0,0.0,0.0,0
-49.0,-38.0,40.0,78.0,11.0,-21.0,-25.0,-36.0,0.0,0.0,0.0,0.0,0.0,0.0,0.0,0.0,0
-58.0,-49.0,-42.0,-10.0,-19.0,-28.0,-39.0,-59.0,0.0,0.0,0.0,0.0,0.0,0.0,0.0,0.0,0
-25.0,-43.0,-66.0,-63.0,-28.0,-34.0,-42.0,-81.0,0.0,0.0,0.0,0.0,0.0,0.0,0.0,0.0,0
3.0,-47.0,-74.0,-76.0,-34.0,-33.0,-48.0,-90.0,0.0,0.0,0.0,0.0,0.0,0.0,0.0,0.0,0
-5.0,-42.0,-65.0,-75.0,-25.0,-39.0,-46.0,-86.0,0.0,0.0,0.0,0.0,0.0,0.0,0.0,0.0,0
-37.0,-48.0,-64.0,-79.0,-15.0,-31.0,-45.0,-72.0,0.0,0.0,0.0,0.0,0.0,0.0,0.0,0.0,0
-43.0,-55.0,-69.0,-79.0,-7.0,-33.0,-41.0,-56.0,0.0,0.0,0.0,0.0,0.0,0.0,0.0,0.0,0
-73.0,-47.0,-69.0,-79.0,-8.0,-23.0,-37.0,-34.0,0.0,0.0,0.0,0.0,0.0,0.0,0.0,0.0,0
-76.0,-26.0,-60.0,-61.0,-14.0,-21.0,-26.0,-22.0,0.0,0.0,0.0,0.0,0.0,0.0,0.0,0.0,0
-52.0,9.0,-50.0,-51.0,-16.0,-14.0,-23.0,-16.0,0.0,0.0,0.0,0.0,0.0,0.0,0.0,0.0,0
-8.0,32.0,-46.0,-37.0,-11.0,-16.0,-30.0,-10.0,0.0,0.0,0.0,0.0,0.0,0.0,0.0,0.0,0
64.0,40.0,-32.0,-24.0,-11.0,-20.0,-26.0,-12.0,0.0,0.0,0.0,0.0,0.0,0.0,0.0,0.0,0
87.0,20.0,-14.0,-6.0,-12.0,-24.0,-20.0,-16.0,0.0,0.0,0.0,0.0,0.0,0.0,0.0,0.0,0
33.0,2.0,-3.0,7.0,-15.0,-27.0,-26.0,-14.0,0.0,0.0,0.0,0.0,0.0,0.0,0.0,0.0,0
-14.0,-11.0,8.0,14.0,-15.0,-25.0,-22.0,-6.0,0.0,0.0,0.0,0.0,0.0,0.0,0.0,0.0,0
-40.0,-27.0,1.0,7.0,-23.0,-30.0,-17.0,-6.0,0.0,0.0,0.0,0.0,0.0,0.0,0.0,0.0,0
-54.0,-53.0,-26.0,-5.0,-35.0,-34.0,-24.0,-8.0,0.0,0.0,0.0,0.0,0.0,0.0,0.0,0.0,0
-68.0,-59.0,-50.0,-18.0,-42.0,-42.0,-29.0,-15.0,0.0,0.0,0.0,0.0,0.0,0.0,0.0,0.0,0
-52.0,-57.0,-84.0,-20.0,-35.0,-41.0,-27.0,-25.0,0.0,0.0,0.0,0.0,0.0,0.0,0.0,0.0,0
-16.0,-50.0,-99.0,-34.0,-39.0,-44.0,-38.0,-39.0,0.0,0.0,0.0,0.0,0.0,0.0,0.0,0.0,0
-7.0,-20.0,-89.0,-43.0,-33.0,-44.0,-33.0,-48.0,0.0,0.0,0.0,0.0,0.0,0.0,0.0,0.0,0
-31.0,-3.0,-72.0,-43.0,-33.0,-37.0,-29.0,-56.0,0.0,0.0,0.0,0.0,0.0,0.0,0.0,0.0,0
-36.0,-22.0,-53.0,-46.0,-26.0,-39.0,-34.0,-56.0,0.0,0.0,0.0,0.0,0.0,0.0,0.0,0.0,0
-26.0,-39.0,-41.0,-58.0,-23.0,-39.0,-40.0,-55.0,0.0,0.0,0.0,0.0,0.0,0.0,0.0,0.0,0
-43.0,-54.0,-38.0,-60.0,-30.0,-37.0,-31.0,-51.0,0.0,0.0,0.0,0.0,0.0,0.0,0.0,0.0,0
-51.0,-53.0,-28.0,-60.0,-39.0,-34.0,-31.0,-49.0,0.0,0.0,0.0,0.0,0.0,0.0,0.0,0.0,0
-61.0,-46.0,-28.0,-62.0,-37.0,-34.0,-29.0,-33.0,0.0,0.0,0.0,0.0,0.0,0.0,0.0,0.0,0
-90.0,-47.0,-30.0,-48.0,-35.0,-31.0,-31.0,-16.0,0.0,0.0,0.0,0.0,0.0,0.0,0.0,0.0,0
-91.0,-45.0,-16.0,-34.0,-33.0,-36.0,-26.0,-8.0,0.0,0.0,0.0,0.0,0.0,0.0,0.0,0.0,0
-69.0,-5.0,6.0,-32.0,-35.0,-33.0,-20.0,-2.0,0.0,0.0,0.0,0.0,0.0,0.0,0.0,0.0,0
-26.0,45.0,34.0,-27.0,-26.0,-28.0,-25.0,-5.0,0.0,0.0,0.0,0.0,0.0,0.0,0.0,0.0,0
4.0,32.0,57.0,-7.0,-27.0,-36.0,-41.0,-8.0,0.0,0.0,0.0,0.0,0.0,0.0,0.0,0.0,0
-10.0,-43.0,38.0,-7.0,-33.0,-36.0,-48.0,-7.0,0.0,0.0,0.0,0.0,0.0,0.0,0.0,0.0,0
-34.0,-61.0,15.0,-26.0,-44.0,-45.0,-42.0,-21.0,0.0,0.0,0.0,0.0,0.0,0.0,0.0,0.0,0
-54.0,-61.0,-18.0,-27.0,-50.0,-49.0,-40.0,-30.0,0.0,0.0,0.0,0.0,0.0,0.0,0.0,0.0,0
-52.0,-53.0,-48.0,-19.0,-45.0,-47.0,-43.0,-34.0,0.0,0.0,0.0,0.0,0.0,0.0,0.0,0.0,0
-40.0,-63.0,-70.0,-14.0,-46.0,-51.0,-37.0,-32.0,0.0,0.0,0.0,0.0,0.0,0.0,0.0,0.0,0
-52.0,-55.0,-63.0,-23.0,-40.0,-46.0,-30.0,-32.0,0.0,0.0,0.0,0.0,0.0,0.0,0.0,0.0,0
-33.0,-42.0,-49.0,-38.0,-45.0,-41.0,-28.0,-46.0,0.0,0.0,0.0,0.0,0.0,0.0,0.0,0.0,0
14.0,-25.0,-23.0,-30.0,-38.0,-29.0,-26.0,-54.0,0.0,0.0,0.0,0.0,0.0,0.0,0.0,0.0,0
13.0,-30.0,-22.0,-25.0,-33.0,-24.0,-30.0,-60.0,0.0,0.0,0.0,0.0,0.0,0.0,0.0,0.0,0
-24.0,-66.0,-91.0,-41.0,-30.0,-29.0,-38.0,-71.0,0.0,0.0,0.0,0.0,0.0,0.0,0.0,0.0,0
-32.0,-90.0,-123.0,-55.0,-23.0,-26.0,-36.0,-75.0,0.0,0.0,0.0,0.0,0.0,0.0,0.0,0.0,0
-28.0,-108.0,-130.0,-67.0,-21.0,-22.0,-32.0,-78.0,0.0,0.0,0.0,0.0,0.0,0.0,0.0,0.0,0
-16.0,-89.0,-124.0,-75.0,-30.0,-29.0,-37.0,-67.0,0.0,0.0,0.0,0.0,0.0,0.0,0.0,0.0,0
21.0,-55.0,-108.0,-81.0,-31.0,-16.0,-34.0,-50.0,0.0,0.0,0.0,0.0,0.0,0.0,0.0,0.0,0
21.0,-42.0,-118.0,-88.0,-41.0,-18.0,-34.0,-32.0,0.0,0.0,0.0,0.0,0.0,0.0,0.0,0.0,0
-14.0,-8.0,-108.0,-91.0,-39.0,-26.0,-32.0,-13.0,0.0,0.0,0.0,0.0,0.0,0.0,0.0,0.0,0
-26.0,10.0,-46.0,-74.0,-30.0,-19.0,-25.0,-6.0,0.0,0.0,0.0,0.0,0.0,0.0,0.0,0.0,0
-18.0,17.0,14.0,-50.0,-15.0,-17.0,-21.0,5.0,0.0,0.0,0.0,0.0,0.0,0.0,0.0,0.0,0
-13.0,19.0,66.0,-17.0,-3.0,-15.0,-18.0,12.0,0.0,0.0,0.0,0.0,0.0,0.0,0.0,0.0,0
6.0,27.0,127.0,37.0,20.0,-11.0,-18.0,18.0,0.0,0.0,0.0,0.0,0.0,0.0,0.0,0.0,0
16.0,53.0,223.0,137.0,57.0,-3.0,-5.0,34.0,0.0,0.0,0.0,0.0,0.0,0.0,0.0,0.0,0
-30.0,27.0,168.0,156.0,53.0,0.0,-13.0,34.0,0.0,0.0,0.0,0.0,0.0,0.0,0.0,0.0,0
-70.0,-51.0,3.0,76.0,20.0,-9.0,-13.0,28.0,0.0,0.0,0.0,0.0,0.0,0.0,0.0,0.0,0
-83.0,-93.0,-75.0,8.0,-11.0,-18.0,-14.0,10.0,0.0,0.0,0.0,0.0,0.0,0.0,0.0,0.0,0
-78.0,-99.0,-80.0,-33.0,-27.0,-29.0,-23.0,-5.0,0.0,0.0,0.0,0.0,0.0,0.0,0.0,0.0,0
-93.0,-98.0,-66.0,-28.0,-31.0,-27.0,-27.0,-7.0,0.0,0.0,0.0,0.0,0.0,0.0,0.0,0.0,0
-99.0,-66.0,-48.0,-22.0,-35.0,-30.0,-35.0,-30.0,0.0,0.0,0.0,0.0,0.0,0.0,0.0,0.0,0
-107.0,-27.0,-10.0,-26.0,-39.0,-36.0,-41.0,-55.0,0.0,0.0,0.0,0.0,0.0,0.0,0.0,0.0,0
-82.0,12.0,-19.0,-43.0,-45.0,-33.0,-51.0,-72.0,0.0,0.0,0.0,0.0,0.0,0.0,0.0,0.0,0
-37.0,34.0,-42.0,-70.0,-65.0,-29.0,-42.0,-80.0,0.0,0.0,0.0,0.0,0.0,0.0,0.0,0.0,0
4.0,28.0,-69.0,-87.0,-67.0,-37.0,-42.0,-82.0,0.0,0.0,0.0,0.0,0.0,0.0,0.0,0.0,0
21.0,29.0,-117.0,-122.0,-79.0,-47.0,-54.0,-85.0,0.0,0.0,0.0,0.0,0.0,0.0,0.0,0.0,0
5.0,40.0,-152.0,-151.0,-93.0,-43.0,-62.0,-107.0,0.0,0.0,0.0,0.0,0.0,0.0,0.0,0.0,0
-26.0,23.0,-171.0,-164.0,-92.0,-32.0,-68.0,-114.0,0.0,0.0,0.0,0.0,0.0,0.0,0.0,0.0,0
-48.0,-36.0,-145.0,-165.0,-89.0,-38.0,-57.0,-78.0,0.0,0.0,0.0,0.0,0.0,0.0,0.0,0.0,0
-56.0,-70.0,-103.0,-146.0,-83.0,-34.0,-42.0,-50.0,0.0,0.0,0.0,0.0,0.0,0.0,0.0,0.0,0
-44.0,-55.0,1.0,-79.0,-60.0,-23.0,-31.0,-25.0,0.0,0.0,0.0,0.0,0.0,0.0,0.0,0.0,0
-41.0,-39.0,152.0,22.0,-22.0,-11.0,-9.0,-3.0,0.0,0.0,0.0,0.0,0.0,0.0,0.0,0.0,0
-46.0,-74.0,169.0,60.0,-11.0,-10.0,-12.0,2.0,0.0,0.0,0.0,0.0,0.0,0.0,0.0,0.0,0
-60.0,-132.0,47.0,14.0,-47.0,-24.0,-21.0,0.0,0.0,0.0,0.0,0.0,0.0,0.0,0.0,0.0,0
-61.0,-160.0,-46.0,-43.0,-75.0,-27.0,-27.0,5.0,0.0,0.0,0.0,0.0,0.0,0.0,0.0,0.0,0
-42.0,-99.0,-46.0,-47.0,-68.0,-28.0,-29.0,9.0,0.0,0.0,0.0,0.0,0.0,0.0,0.0,0.0,0
-21.0,-42.0,-33.0,-41.0,-61.0,-29.0,-30.0,14.0,0.0,0.0,0.0,0.0,0.0,0.0,0.0,0.0,0
-11.0,-4.0,-30.0,-20.0,-53.0,-27.0,-29.0,18.0,0.0,0.0,0.0,0.0,0.0,0.0,0.0,0.0,0
7.0,31.0,-5.0,9.0,-41.0,-25.0,-23.0,18.0,0.0,0.0,0.0,0.0,0.0,0.0,0.0,0.0,0
-9.0,45.0,17.0,22.0,-27.0,-20.0,-31.0,0.0,0.0,0.0,0.0,0.0,0.0,0.0,0.0,0.0,0
-17.0,42.0,15.0,21.0,-25.0,-20.0,-35.0,-28.0,0.0,0.0,0.0,0.0,0.0,0.0,0.0,0.0,0
3.0,36.0,-26.0,1.0,-28.0,-20.0,-50.0,-46.0,0.0,0.0,0.0,0.0,0.0,0.0,0.0,0.0,0
4.0,25.0,-70.0,-31.0,-28.0,-22.0,-53.0,-52.0,0.0,0.0,0.0,0.0,0.0,0.0,0.0,0.0,0
-11.0,-2.0,-98.0,-42.0,-15.0,-17.0,-45.0,-46.0,0.0,0.0,0.0,0.0,0.0,0.0,0.0,0.0,0
24.0,-15.0,-101.0,-39.0,3.0,-10.0,-45.0,-43.0,0.0,0.0,0.0,0.0,0.0,0.0,0.0,0.0,0
45.0,-13.0,-91.0,-29.0,15.0,-11.0,-37.0,-50.0,0.0,0.0,0.0,0.0,0.0,0.0,0.0,0.0,0
32.0,-16.0,-82.0,-36.0,7.0,-13.0,-37.0,-42.0,0.0,0.0,0.0,0.0,0.0,0.0,0.0,0.0,0
16.0,-48.0,-81.0,-47.0,-2.0,-10.0,-36.0,-39.0,0.0,0.0,0.0,0.0,0.0,0.0,0.0,0.0,0
-7.0,-73.0,-79.0,-67.0,-8.0,-19.0,-35.0,-33.0,0.0,0.0,0.0,0.0,0.0,0.0,0.0,0.0,0
-53.0,-75.0,-61.0,-71.0,-13.0,-30.0,-33.0,-19.0,0.0,0.0,0.0,0.0,0.0,0.0,0.0,0.0,0
-73.0,-70.0,-43.0,-63.0,-21.0,-32.0,-28.0,-15.0,0.0,0.0,0.0,0.0,0.0,0.0,0.0,0.0,0
-83.0,-79.0,-58.0,-68.0,-36.0,-32.0,-28.0,-17.0,0.0,0.0,0.0,0.0,0.0,0.0,0.0,0.0,0
-72.0,-81.0,-68.0,-72.0,-40.0,-31.0,-27.0,-15.0,0.0,0.0,0.0,0.0,0.0,0.0,0.0,0.0,0
-48.0,-67.0,-51.0,-69.0,-42.0,-41.0,-32.0,-19.0,0.0,0.0,0.0,0.0,0.0,0.0,0.0,0.0,0
-46.0,-58.0,-41.0,-53.0,-43.0,-44.0,-31.0,-19.0,0.0,0.0,0.0,0.0,0.0,0.0,0.0,0.0,0
-82.0,-67.0,-47.0,-46.0,-46.0,-45.0,-30.0,-15.0,0.0,0.0,0.0,0.0,0.0,0.0,0.0,0.0,0
-88.0,-71.0,-40.0,-30.0,-51.0,-48.0,-30.0,-11.0,0.0,0.0,0.0,0.0,0.0,0.0,0.0,0.0,0
-76.0,-44.0,-12.0,-9.0,-41.0,-52.0,-32.0,-25.0,0.0,0.0,0.0,0.0,0.0,0.0,0.0,0.0,0
-60.0,-25.0,7.0,-5.0,-49.0,-49.0,-33.0,-36.0,0.0,0.0,0.0,0.0,0.0,0.0,0.0,0.0,0
-70.0,-17.0,11.0,2.0,-47.0,-38.0,-36.0,-36.0,0.0,0.0,0.0,0.0,0.0,0.0,0.0,0.0,0
-44.0,5.0,16.0,1.0,-40.0,-30.0,-45.0,-48.0,0.0,0.0,0.0,0.0,0.0,0.0,0.0,0.0,0
11.0,47.0,37.0,6.0,-36.0,-30.0,-50.0,-64.0,0.0,0.0,0.0,0.0,0.0,0.0,0.0,0.0,0
35.0,73.0,51.0,-1.0,-31.0,-31.0,-43.0,-69.0,0.0,0.0,0.0,0.0,0.0,0.0,0.0,0.0,0
18.0,58.0,64.0,-1.0,-25.0,-30.0,-44.0,-76.0,0.0,0.0,0.0,0.0,0.0,0.0,0.0,0.0,0
37.0,39.0,40.0,6.0,-19.0,-22.0,-43.0,-70.0,0.0,0.0,0.0,0.0,0.0,0.0,0.0,0.0,0
52.0,-6.0,24.0,-3.0,-14.0,-29.0,-51.0,-64.0,0.0,0.0,0.0,0.0,0.0,0.0,0.0,0.0,0
22.0,-59.0,-8.0,-11.0,-24.0,-37.0,-53.0,-61.0,0.0,0.0,0.0,0.0,0.0,0.0,0.0,0.0,0
-24.0,-106.0,-62.0,-9.0,-20.0,-39.0,-51.0,-56.0,0.0,0.0,0.0,0.0,0.0,0.0,0.0,0.0,0
-56.0,-155.0,-104.0,3.0,-15.0,-41.0,-49.0,-43.0,0.0,0.0,0.0,0.0,0.0,0.0,0.0,0.0,0
-91.0,-146.0,-86.0,-1.0,-11.0,-38.0,-43.0,-33.0,0.0,0.0,0.0,0.0,0.0,0.0,0.0,0.0,0
-110.0,-114.0,-61.0,-22.0,-24.0,-43.0,-40.0,-26.0,0.0,0.0,0.0,0.0,0.0,0.0,0.0,0.0,0
-102.0,-45.0,0.0,-39.0,-34.0,-48.0,-31.0,-21.0,0.0,0.0,0.0,0.0,0.0,0.0,0.0,0.0,0
-76.0,7.0,35.0,-43.0,-44.0,-42.0,-35.0,-23.0,0.0,0.0,0.0,0.0,0.0,0.0,0.0,0.0,0
-50.0,20.0,22.0,-47.0,-58.0,-44.0,-25.0,-24.0,0.0,0.0,0.0,0.0,0.0,0.0,0.0,0.0,0
-49.0,4.0,-20.0,-48.0,-51.0,-48.0,-22.0,-27.0,0.0,0.0,0.0,0.0,0.0,0.0,0.0,0.0,0
-59.0,-3.0,-16.0,-49.0,-50.0,-46.0,-19.0,-24.0,0.0,0.0,0.0,0.0,0.0,0.0,0.0,0.0,0
-52.0,-14.0,-40.0,-46.0,-66.0,-43.0,-29.0,-24.0,0.0,0.0,0.0,0.0,0.0,0.0,0.0,0.0,0
-45.0,-35.0,-79.0,-56.0,-69.0,-33.0,-19.0,-25.0,0.0,0.0,0.0,0.0,0.0,0.0,0.0,0.0,0
-38.0,-53.0,-110.0,-66.0,-72.0,-31.0,-14.0,-27.0,0.0,0.0,0.0,0.0,0.0,0.0,0.0,0.0,0
-57.0,-52.0,-121.0,-55.0,-60.0,-22.0,-12.0,-22.0,0.0,0.0,0.0,0.0,0.0,0.0,0.0,0.0,0
-47.0,-28.0,-105.0,-45.0,-53.0,-14.0,-12.0,-34.0,0.0,0.0,0.0,0.0,0.0,0.0,0.0,0.0,0
-17.0,-8.0,-76.0,-40.0,-37.0,-12.0,-22.0,-49.0,0.0,0.0,0.0,0.0,0.0,0.0,0.0,0.0,0
6.0,1.0,-48.0,-35.0,-25.0,-12.0,-28.0,-57.0,0.0,0.0,0.0,0.0,0.0,0.0,0.0,0.0,0
14.0,8.0,-30.0,-36.0,-26.0,-14.0,-37.0,-59.0,0.0,0.0,0.0,0.0,0.0,0.0,0.0,0.0,0
12.0,15.0,-10.0,-35.0,-28.0,-20.0,-41.0,-61.0,0.0,0.0,0.0,0.0,0.0,0.0,0.0,0.0,0
-9.0,22.0,29.0,-17.0,-13.0,-16.0,-42.0,-55.0,0.0,0.0,0.0,0.0,0.0,0.0,0.0,0.0,0
-26.0,45.0,62.0,3.0,0.0,-10.0,-40.0,-41.0,0.0,0.0,0.0,0.0,0.0,0.0,0.0,0.0,0
-25.0,42.0,32.0,-16.0,-10.0,-11.0,-43.0,-40.0,0.0,0.0,0.0,0.0,0.0,0.0,0.0,0.0,0
-22.0,-3.0,-13.0,-46.0,-15.0,-28.0,-46.0,-35.0,0.0,0.0,0.0,0.0,0.0,0.0,0.0,0.0,0
-49.0,-35.0,-40.0,-54.0,-21.0,-38.0,-45.0,-22.0,0.0,0.0,0.0,0.0,0.0,0.0,0.0,0.0,0
-42.0,-38.0,-59.0,-50.0,-26.0,-36.0,-39.0,-4.0,0.0,0.0,0.0,0.0,0.0,0.0,0.0,0.0,0
-27.0,-52.0,-77.0,-61.0,-38.0,-42.0,-36.0,3.0,0.0,0.0,0.0,0.0,0.0,0.0,0.0,0.0,0
-25.0,-67.0,-84.0,-75.0,-58.0,-55.0,-38.0,-4.0,0.0,0.0,0.0,0.0,0.0,0.0,0.0,0.0,0
-22.0,-58.0,-93.0,-77.0,-68.0,-53.0,-38.0,-12.0,0.0,0.0,0.0,0.0,0.0,0.0,0.0,0.0,0
-17.0,-42.0,-95.0,-80.0,-69.0,-55.0,-36.0,-11.0,0.0,0.0,0.0,0.0,0.0,0.0,0.0,0.0,0
-23.0,-33.0,-82.0,-69.0,-70.0,-53.0,-29.0,-11.0,0.0,0.0,0.0,0.0,0.0,0.0,0.0,0.0,0
-18.0,-14.0,-74.0,-64.0,-76.0,-46.0,-28.0,-5.0,0.0,0.0,0.0,0.0,0.0,0.0,0.0,0.0,0
-29.0,0.0,-78.0,-68.0,-73.0,-47.0,-34.0,-16.0,0.0,0.0,0.0,0.0,0.0,0.0,0.0,0.0,0
-44.0,-22.0,-48.0,-43.0,-63.0,-49.0,-34.0,-28.0,0.0,0.0,0.0,0.0,0.0,0.0,0.0,0.0,0
-50.0,-63.0,-21.0,-14.0,-42.0,-34.0,-34.0,-32.0,0.0,0.0,0.0,0.0,0.0,0.0,0.0,0.0,0
-39.0,-110.0,-10.0,3.0,-27.0,-21.0,-40.0,-45.0,0.0,0.0,0.0,0.0,0.0,0.0,0.0,0.0,0
-33.0,-119.0,29.0,28.0,-6.0,-11.0,-34.0,-46.0,0.0,0.0,0.0,0.0,0.0,0.0,0.0,0.0,0
-39.0,-78.0,84.0,73.0,20.0,0.0,-27.0,-49.0,0.0,0.0,0.0,0.0,0.0,0.0,0.0,0.0,0
-43.0,-32.0,105.0,98.0,43.0,5.0,-27.0,-39.0,0.0,0.0,0.0,0.0,0.0,0.0,0.0,0.0,0
-38.0,-36.0,54.0,81.0,38.0,5.0,-28.0,-42.0,0.0,0.0,0.0,0.0,0.0,0.0,0.0,0.0,0
-37.0,-40.0,8.0,24.0,16.0,9.0,-33.0,-37.0,0.0,0.0,0.0,0.0,0.0,0.0,0.0,0.0,0
-47.0,-29.0,-24.0,-27.0,3.0,-2.0,-42.0,-35.0,0.0,0.0,0.0,0.0,0.0,0.0,0.0,0.0,0
-26.0,-12.0,-19.0,-37.0,-2.0,-1.0,-41.0,-31.0,0.0,0.0,0.0,0.0,0.0,0.0,0.0,0.0,0
-17.0,2.0,-12.0,-42.0,-13.0,-6.0,-35.0,-18.0,0.0,0.0,0.0,0.0,0.0,0.0,0.0,0.0,0
-38.0,2.0,-38.0,-69.0,-33.0,-24.0,-35.0,-12.0,0.0,0.0,0.0,0.0,0.0,0.0,0.0,0.0,0
-42.0,-10.0,-79.0,-91.0,-56.0,-39.0,-45.0,-2.0,0.0,0.0,0.0,0.0,0.0,0.0,0.0,0.0,0
-43.0,-23.0,-108.0,-95.0,-58.0,-54.0,-44.0,-6.0,0.0,0.0,0.0,0.0,0.0,0.0,0.0,0.0,0
-41.0,-22.0,-102.0,-79.0,-58.0,-47.0,-37.0,-6.0,0.0,0.0,0.0,0.0,0.0,0.0,0.0,0.0,0
-19.0,-8.0,-73.0,-51.0,-48.0,-44.0,-36.0,-7.0,0.0,0.0,0.0,0.0,0.0,0.0,0.0,0.0,0
5.0,-7.0,-49.0,-39.0,-48.0,-48.0,-41.0,-2.0,0.0,0.0,0.0,0.0,0.0,0.0,0.0,0.0,0
7.0,-26.0,-74.0,-45.0,-62.0,-57.0,-39.0,-3.0,0.0,0.0,0.0,0.0,0.0,0.0,0.0,0.0,0
4.0,-63.0,-104.0,-59.0,-58.0,-59.0,-38.0,-9.0,0.0,0.0,0.0,0.0,0.0,0.0,0.0,0.0,0
-16.0,-98.0,-98.0,-56.0,-67.0,-60.0,-42.0,-23.0,0.0,0.0,0.0,0.0,0.0,0.0,0.0,0.0,0
-39.0,-118.0,-81.0,-53.0,-67.0,-54.0,-43.0,-25.0,0.0,0.0,0.0,0.0,0.0,0.0,0.0,0.0,0
-70.0,-105.0,-69.0,-48.0,-65.0,-48.0,-39.0,-23.0,0.0,0.0,0.0,0.0,0.0,0.0,0.0,0.0,0
-69.0,-81.0,-69.0,-47.0,-52.0,-40.0,-33.0,-30.0,0.0,0.0,0.0,0.0,0.0,0.0,0.0,0.0,0
-46.0,-72.0,-72.0,-48.0,-52.0,-36.0,-42.0,-44.0,0.0,0.0,0.0,0.0,0.0,0.0,0.0,0.0,0
-34.0,-51.0,-73.0,-59.0,-50.0,-27.0,-54.0,-48.0,0.0,0.0,0.0,0.0,0.0,0.0,0.0,0.0,0
-28.0,8.0,-70.0,-75.0,-51.0,-30.0,-49.0,-56.0,0.0,0.0,0.0,0.0,0.0,0.0,0.0,0.0,0
1.0,57.0,-39.0,-67.0,-38.0,-13.0,-44.0,-63.0,0.0,0.0,0.0,0.0,0.0,0.0,0.0,0.0,0
5.0,70.0,-26.0,-61.0,-35.0,-7.0,-48.0,-62.0,0.0,0.0,0.0,0.0,0.0,0.0,0.0,0.0,0
5.0,66.0,-25.0,-48.0,-27.0,-13.0,-47.0,-58.0,0.0,0.0,0.0,0.0,0.0,0.0,0.0,0.0,0
40.0,53.0,-11.0,-20.0,-16.0,-16.0,-49.0,-54.0,0.0,0.0,0.0,0.0,0.0,0.0,0.0,0.0,0
61.0,47.0,55.0,54.0,16.0,-12.0,-47.0,-33.0,0.0,0.0,0.0,0.0,0.0,0.0,0.0,0.0,0
8.0,41.0,83.0,111.0,34.0,-11.0,-29.0,-13.0,0.0,0.0,0.0,0.0,0.0,0.0,0.0,0.0,0
-67.0,-8.0,4.0,42.0,-4.0,-27.0,-25.0,-14.0,0.0,0.0,0.0,0.0,0.0,0.0,0.0,0.0,0
-111.0,-56.0,-48.0,-22.0,-31.0,-34.0,-26.0,-10.0,0.0,0.0,0.0,0.0,0.0,0.0,0.0,0.0,0
-119.0,-54.0,-46.0,-20.0,-31.0,-34.0,-18.0,-11.0,0.0,0.0,0.0,0.0,0.0,0.0,0.0,0.0,0
-88.0,-55.0,-27.0,-7.0,-29.0,-33.0,-23.0,-9.0,0.0,0.0,0.0,0.0,0.0,0.0,0.0,0.0,0
-81.0,-95.0,-41.0,-1.0,-37.0,-38.0,-30.0,-5.0,0.0,0.0,0.0,0.0,0.0,0.0,0.0,0.0,0
-99.0,-117.0,-67.0,-2.0,-56.0,-54.0,-33.0,-13.0,0.0,0.0,0.0,0.0,0.0,0.0,0.0,0.0,0
-69.0,-92.0,-46.0,0.0,-44.0,-52.0,-33.0,-26.0,0.0,0.0,0.0,0.0,0.0,0.0,0.0,0.0,0
-37.0,-60.0,-28.0,-2.0,-42.0,-55.0,-36.0,-32.0,0.0,0.0,0.0,0.0,0.0,0.0,0.0,0.0,0
-49.0,-80.0,-40.0,-13.0,-48.0,-47.0,-39.0,-41.0,0.0,0.0,0.0,0.0,0.0,0.0,0.0,0.0,0
-76.0,-89.0,-50.0,-25.0,-47.0,-44.0,-39.0,-49.0,0.0,0.0,0.0,0.0,0.0,0.0,0.0,0.0,0
-58.0,-84.0,-21.0,-30.0,-51.0,-38.0,-44.0,-54.0,0.0,0.0,0.0,0.0,0.0,0.0,0.0,0.0,0
-12.0,-55.0,9.0,-24.0,-38.0,-21.0,-38.0,-62.0,0.0,0.0,0.0,0.0,0.0,0.0,0.0,0.0,0
1.0,-30.0,12.0,-25.0,-20.0,-13.0,-30.0,-68.0,0.0,0.0,0.0,0.0,0.0,0.0,0.0,0.0,0
-24.0,-8.0,5.0,-27.0,-27.0,-11.0,-31.0,-64.0,0.0,0.0,0.0,0.0,0.0,0.0,0.0,0.0,0
-15.0,-1.0,16.0,-21.0,-27.0,-13.0,-37.0,-67.0,0.0,0.0,0.0,0.0,0.0,0.0,0.0,0.0,0
-3.0,-13.0,7.0,-35.0,-19.0,-10.0,-35.0,-58.0,0.0,0.0,0.0,0.0,0.0,0.0,0.0,0.0,0
-17.0,-27.0,-22.0,-58.0,-28.0,-25.0,-38.0,-51.0,0.0,0.0,0.0,0.0,0.0,0.0,0.0,0.0,0
-21.0,-39.0,-45.0,-69.0,-30.0,-35.0,-36.0,-43.0,0.0,0.0,0.0,0.0,0.0,0.0,0.0,0.0,0
-29.0,-60.0,-67.0,-72.0,-33.0,-38.0,-32.0,-34.0,0.0,0.0,0.0,0.0,0.0,0.0,0.0,0.0,0
-78.0,-72.0,-80.0,-68.0,-33.0,-36.0,-36.0,-22.0,0.0,0.0,0.0,0.0,0.0,0.0,0.0,0.0,0
-89.0,-76.0,-85.0,-64.0,-36.0,-39.0,-31.0,-16.0,0.0,0.0,0.0,0.0,0.0,0.0,0.0,0.0,0
-76.0,-57.0,-90.0,-77.0,-35.0,-45.0,-25.0,-10.0,0.0,0.0,0.0,0.0,0.0,0.0,0.0,0.0,0
-70.0,-38.0,-96.0,-70.0,-37.0,-41.0,-24.0,-9.0,0.0,0.0,0.0,0.0,0.0,0.0,0.0,0.0,0
-42.0,-20.0,-81.0,-54.0,-40.0,-45.0,-27.0,-6.0,0.0,0.0,0.0,0.0,0.0,0.0,0.0,0.0,0
-23.0,-3.0,-63.0,-54.0,-48.0,-51.0,-25.0,-6.0,0.0,0.0,0.0,0.0,0.0,0.0,0.0,0.0,0
-33.0,7.0,-52.0,-63.0,-53.0,-50.0,-28.0,-7.0,0.0,0.0,0.0,0.0,0.0,0.0,0.0,0.0,0
-29.0,0.0,-38.0,-61.0,-56.0,-50.0,-25.0,-9.0,0.0,0.0,0.0,0.0,0.0,0.0,0.0,0.0,0
-23.0,-2.0,-21.0,-51.0,-46.0,-43.0,-15.0,-13.0,0.0,0.0,0.0,0.0,0.0,0.0,0.0,0.0,0
-28.0,-2.0,14.0,-33.0,-37.0,-38.0,-18.0,-18.0,0.0,0.0,0.0,0.0,0.0,0.0,0.0,0.0,0
-55.0,-1.0,-11.0,-30.0,-41.0,-38.0,-15.0,-23.0,0.0,0.0,0.0,0.0,0.0,0.0,0.0,0.0,0
-54.0,1.0,-84.0,-51.0,-43.0,-31.0,-21.0,-38.0,0.0,0.0,0.0,0.0,0.0,0.0,0.0,0.0,0
-35.0,-16.0,-136.0,-57.0,-38.0,-28.0,-25.0,-39.0,0.0,0.0,0.0,0.0,0.0,0.0,0.0,0.0,0
-19.0,-33.0,-113.0,-55.0,-31.0,-24.0,-33.0,-41.0,0.0,0.0,0.0,0.0,0.0,0.0,0.0,0.0,0
-22.0,-21.0,-39.0,-19.0,-13.0,-22.0,-34.0,-37.0,0.0,0.0,0.0,0.0,0.0,0.0,0.0,0.0,0
6.0,-20.0,0.0,0.0,2.0,-15.0,-39.0,-39.0,0.0,0.0,0.0,0.0,0.0,0.0,0.0,0.0,0
37.0,-21.0,13.0,-22.0,-3.0,-24.0,-43.0,-46.0,0.0,0.0,0.0,0.0,0.0,0.0,0.0,0.0,2
38.0,-13.0,42.0,-20.0,-6.0,-23.0,-39.0,-52.0,0.0,0.0,0.0,0.0,0.0,0.0,0.0,0.0,2
37.0,-18.0,71.0,0.0,-6.0,-26.0,-49.0,-71.0,0.0,0.0,0.0,0.0,0.0,0.0,0.0,0.0,2
-3.0,-49.0,52.0,-23.0,-22.0,-24.0,-53.0,-83.0,0.0,0.0,0.0,0.0,0.0,0.0,0.0,0.0,2
-79.0,-69.0,-14.0,-56.0,-38.0,-28.0,-39.0,-61.0,0.0,0.0,0.0,0.0,0.0,0.0,0.0,0.0,2
-100.0,-57.0,-17.0,-49.0,-39.0,-24.0,-36.0,-39.0,0.0,0.0,0.0,0.0,0.0,0.0,0.0,0.0,2
-94.0,-38.0,-14.0,-38.0,-39.0,-30.0,-32.0,-22.0,0.0,0.0,0.0,0.0,0.0,0.0,0.0,0.0,2
-75.0,-25.0,-33.0,-30.0,-46.0,-27.0,-25.0,-11.0,0.0,0.0,0.0,0.0,0.0,0.0,0.0,0.0,2
-47.0,-11.0,-32.0,-22.0,-35.0,-30.0,-16.0,-5.0,0.0,0.0,0.0,0.0,0.0,0.0,0.0,0.0,2
-40.0,-26.0,-40.0,-35.0,-44.0,-32.0,-12.0,-6.0,0.0,0.0,0.0,0.0,0.0,0.0,0.0,0.0,2
-43.0,-36.0,-68.0,-45.0,-54.0,-35.0,-11.0,0.0,0.0,0.0,0.0,0.0,0.0,0.0,0.0,0.0,2
-39.0,-10.0,-112.0,-54.0,-55.0,-39.0,-12.0,-11.0,0.0,0.0,0.0,0.0,0.0,0.0,0.0,0.0,2
-37.0,3.0,-84.0,-34.0,-50.0,-34.0,-20.0,-26.0,0.0,0.0,0.0,0.0,0.0,0.0,0.0,0.0,2
-47.0,-29.0,-28.0,12.0,-37.0,-38.0,-14.0,-36.0,0.0,0.0,0.0,0.0,0.0,0.0,0.0,0.0,2
-56.0,-50.0,-14.0,41.0,-21.0,-35.0,-15.0,-38.0,0.0,0.0,0.0,0.0,0.0,0.0,0.0,0.0,2
-55.0,-62.0,-24.0,24.0,-40.0,-36.0,-15.0,-48.0,0.0,0.0,0.0,0.0,0.0,0.0,0.0,0.0,2
-17.0,-69.0,-37.0,-1.0,-43.0,-28.0,-13.0,-66.0,0.0,0.0,0.0,0.0,0.0,0.0,0.0,0.0,2
-27.0,-107.0,-85.0,-2.0,-23.0,-22.0,-18.0,-80.0,0.0,0.0,0.0,0.0,0.0,0.0,0.0,0.0,2
-67.0,-140.0,-162.0,-43.0,-32.0,-25.0,-29.0,-92.0,0.0,0.0,0.0,0.0,0.0,0.0,0.0,0.0,2
-56.0,-102.0,-163.0,-103.0,-51.0,-28.0,-39.0,-91.0,0.0,0.0,0.0,0.0,0.0,0.0,0.0,0.0,2
-19.0,-45.0,-128.0,-127.0,-67.0,-34.0,-47.0,-82.0,0.0,0.0,0.0,0.0,0.0,0.0,0.0,0.0,2
-9.0,-28.0,-114.0,-126.0,-70.0,-43.0,-44.0,-75.0,0.0,0.0,0.0,0.0,0.0,0.0,0.0,0.0,2
-22.0,-56.0,-114.0,-103.0,-51.0,-44.0,-46.0,-56.0,0.0,0.0,0.0,0.0,0.0,0.0,0.0,0.0,2
-42.0,-90.0,-110.0,-104.0,-50.0,-45.0,-44.0,-29.0,0.0,0.0,0.0,0.0,0.0,0.0,0.0,0.0,2
-95.0,-84.0,-85.0,-98.0,-54.0,-42.0,-38.0,-15.0,0.0,0.0,0.0,0.0,0.0,0.0,0.0,0.0,2
-132.0,-69.0,-41.0,-66.0,-47.0,-44.0,-27.0,-6.0,0.0,0.0,0.0,0.0,0.0,0.0,0.0,0.0,2
-139.0,-41.0,-17.0,-42.0,-37.0,-40.0,-31.0,1.0,0.0,0.0,0.0,0.0,0.0,0.0,0.0,0.0,2
-90.0,1.0,14.0,-19.0,-21.0,-37.0,-14.0,10.0,0.0,0.0,0.0,0.0,0.0,0.0,0.0,0.0,2
-23.0,6.0,55.0,6.0,-11.0,-33.0,-11.0,11.0,0.0,0.0,0.0,0.0,0.0,0.0,0.0,0.0,2
-4.0,-5.0,75.0,25.0,-14.0,-39.0,-11.0,4.0,0.0,0.0,0.0,0.0,0.0,0.0,0.0,0.0,2
13.0,-8.0,60.0,24.0,-24.0,-39.0,-15.0,4.0,0.0,0.0,0.0,0.0,0.0,0.0,0.0,0.0,2
20.0,-10.0,30.0,18.0,-28.0,-35.0,-16.0,2.0,0.0,0.0,0.0,0.0,0.0,0.0,0.0,0.0,2
5.0,-28.0,-15.0,22.0,-34.0,-41.0,-17.0,-8.0,0.0,0.0,0.0,0.0,0.0,0.0,0.0,0.0,2
-10.0,-24.0,-43.0,4.0,-31.0,-39.0,-14.0,-7.0,0.0,0.0,0.0,0.0,0.0,0.0,0.0,0.0,2
-19.0,25.0,-32.0,-13.0,-27.0,-30.0,-10.0,-5.0,0.0,0.0,0.0,0.0,0.0,0.0,0.0,0.0,2
-19.0,70.0,-12.0,-14.0,-30.0,-26.0,-18.0,-21.0,0.0,0.0,0.0,0.0,0.0,0.0,0.0,0.0,2
-3.0,86.0,8.0,-16.0,-28.0,-24.0,-32.0,-37.0,0.0,0.0,0.0,0.0,0.0,0.0,0.0,0.0,2
32.0,70.0,5.0,-20.0,-22.0,-23.0,-33.0,-35.0,0.0,0.0,0.0,0.0,0.0,0.0,0.0,0.0,2
25.0,62.0,-1.0,-27.0,-19.0,-26.0,-40.0,-42.0,0.0,0.0,0.0,0.0,0.0,0.0,0.0,0.0,2
26.0,45.0,-14.0,-46.0,-18.0,-24.0,-46.0,-52.0,0.0,0.0,0.0,0.0,0.0,0.0,0.0,0.0,2
28.0,-4.0,-24.0,-28.0,-10.0,-15.0,-40.0,-46.0,0.0,0.0,0.0,0.0,0.0,0.0,0.0,0.0,2
8.0,-44.0,-30.0,-29.0,-4.0,-4.0,-43.0,-37.0,0.0,0.0,0.0,0.0,0.0,0.0,0.0,0.0,2
-1.0,-56.0,-38.0,-27.0,3.0,-10.0,-45.0,-32.0,0.0,0.0,0.0,0.0,0.0,0.0,0.0,0.0,2
-19.0,-79.0,-38.0,-28.0,2.0,-14.0,-44.0,-22.0,0.0,0.0,0.0,0.0,0.0,0.0,0.0,0.0,2
-80.0,-87.0,-37.0,-25.0,0.0,-18.0,-36.0,-15.0,0.0,0.0,0.0,0.0,0.0,0.0,0.0,0.0,2
-114.0,-82.0,-35.0,-21.0,-1.0,-22.0,-42.0,-10.0,0.0,0.0,0.0,0.0,0.0,0.0,0.0,0.0,2
-122.0,-80.0,-29.0,-23.0,-10.0,-20.0,-45.0,-10.0,0.0,0.0,0.0,0.0,0.0,0.0,0.0,0.0,2
-95.0,-60.0,-32.0,-34.0,-21.0,-28.0,-48.0,-18.0,0.0,0.0,0.0,0.0,0.0,0.0,0.0,0.0,2
-44.0,-51.0,-26.0,-40.0,-29.0,-30.0,-47.0,-28.0,0.0,0.0,0.0,0.0,0.0,0.0,0.0,0.0,2
-8.0,-51.0,-29.0,-37.0,-32.0,-34.0,-44.0,-28.0,0.0,0.0,0.0,0.0,0.0,0.0,0.0,0.0,2
-4.0,-44.0,-33.0,-32.0,-38.0,-39.0,-44.0,-28.0,0.0,0.0,0.0,0.0,0.0,0.0,0.0,0.0,2
-5.0,-46.0,-48.0,-35.0,-33.0,-42.0,-39.0,-37.0,0.0,0.0,0.0,0.0,0.0,0.0,0.0,0.0,2
5.0,-36.0,-53.0,-32.0,-18.0,-38.0,-39.0,-39.0,0.0,0.0,0.0,0.0,0.0,0.0,0.0,0.0,2
-20.0,-37.0,-51.0,-33.0,-17.0,-31.0,-42.0,-38.0,0.0,0.0,0.0,0.0,0.0,0.0,0.0,0.0,2
-61.0,-43.0,-54.0,-45.0,-21.0,-30.0,-45.0,-41.0,0.0,0.0,0.0,0.0,0.0,0.0,0.0,0.0,2
-59.0,-37.0,-38.0,-62.0,-35.0,-39.0,-47.0,-54.0,0.0,0.0,0.0,0.0,0.0,0.0,0.0,0.0,2
-22.0,-28.0,-12.0,-52.0,-32.0,-36.0,-42.0,-59.0,0.0,0.0,0.0,0.0,0.0,0.0,0.0,0.0,2
-15.0,-35.0,6.0,-40.0,-30.0,-21.0,-36.0,-59.0,0.0,0.0,0.0,0.0,0.0,0.0,0.0,0.0,2
-42.0,-63.0,-55.0,-55.0,-28.0,-22.0,-43.0,-56.0,0.0,0.0,0.0,0.0,0.0,0.0,0.0,0.0,2
-46.0,-60.0,-67.0,-54.0,-27.0,-18.0,-44.0,-52.0,0.0,0.0,0.0,0.0,0.0,0.0,0.0,0.0,2
-39.0,-36.0,-5.0,-23.0,-20.0,-7.0,-40.0,-45.0,0.0,0.0,0.0,0.0,0.0,0.0,0.0,0.0,2
-48.0,-38.0,7.0,-2.0,-13.0,-6.0,-26.0,-26.0,0.0,0.0,0.0,0.0,0.0,0.0,0.0,0.0,2
-62.0,-42.0,2.0,-6.0,-20.0,-8.0,-31.0,-20.0,0.0,0.0,0.0,0.0,0.0,0.0,0.0,0.0,2
-68.0,-32.0,50.0,11.0,-11.0,-24.0,-45.0,-15.0,0.0,0.0,0.0,0.0,0.0,0.0,0.0,0.0,2
-97.0,-9.0,102.0,38.0,-11.0,-38.0,-58.0,-11.0,0.0,0.0,0.0,0.0,0.0,0.0,0.0,0.0,2
-143.0,-15.0,71.0,28.0,-19.0,-48.0,-62.0,-17.0,0.0,0.0,0.0,0.0,0.0,0.0,0.0,0.0,2
-154.0,-46.0,-31.0,-30.0,-38.0,-60.0,-61.0,-21.0,0.0,0.0,0.0,0.0,0.0,0.0,0.0,0.0,2
-113.0,-50.0,-106.0,-68.0,-52.0,-63.0,-58.0,-30.0,0.0,0.0,0.0,0.0,0.0,0.0,0.0,0.0,2
-46.0,-30.0,-127.0,-83.0,-53.0,-54.0,-40.0,-33.0,0.0,0.0,0.0,0.0,0.0,0.0,0.0,0.0,2
3.0,-8.0,-104.0,-73.0,-46.0,-61.0,-31.0,-31.0,0.0,0.0,0.0,0.0,0.0,0.0,0.0,0.0,2
17.0,12.0,-35.0,-32.0,-32.0,-59.0,-40.0,-41.0,0.0,0.0,0.0,0.0,0.0,0.0,0.0,0.0,2
19.0,3.0,-10.0,-19.0,-26.0,-57.0,-49.0,-52.0,0.0,0.0,0.0,0.0,0.0,0.0,0.0,0.0,2
37.0,-9.0,-46.0,-43.0,-25.0,-52.0,-41.0,-56.0,0.0,0.0,0.0,0.0,0.0,0.0,0.0,0.0,2
5.0,-3.0,-69.0,-75.0,-34.0,-41.0,-36.0,-53.0,0.0,0.0,0.0,0.0,0.0,0.0,0.0,0.0,2
-63.0,6.0,-96.0,-95.0,-40.0,-50.0,-38.0,-49.0,0.0,0.0,0.0,0.0,0.0,0.0,0.0,0.0,2
-81.0,-5.0,-121.0,-88.0,-43.0,-46.0,-41.0,-48.0,0.0,0.0,0.0,0.0,0.0,0.0,0.0,0.0,2
-47.0,-29.0,-120.0,-79.0,-45.0,-44.0,-41.0,-51.0,0.0,0.0,0.0,0.0,0.0,0.0,0.0,0.0,2
-15.0,-50.0,-118.0,-62.0,-42.0,-32.0,-39.0,-48.0,0.0,0.0,0.0,0.0,0.0,0.0,0.0,0.0,2
-17.0,-84.0,-119.0,-40.0,-36.0,-29.0,-40.0,-46.0,0.0,0.0,0.0,0.0,0.0,0.0,0.0,0.0,2
16.0,-78.0,7.0,68.0,7.0,-13.0,-28.0,-37.0,0.0,0.0,0.0,0.0,0.0,0.0,0.0,0.0,2
27.0,-23.0,220.0,227.0,80.0,9.0,-12.0,-14.0,0.0,0.0,0.0,0.0,0.0,0.0,0.0,0.0,2
-25.0,-57.0,137.0,157.0,49.0,-4.0,-21.0,-19.0,0.0,0.0,0.0,0.0,0.0,0.0,0.0,0.0,2
-44.0,-97.0,-37.0,9.0,-19.0,-22.0,-39.0,-31.0,0.0,0.0,0.0,0.0,0.0,0.0,0.0,0.0,2
-25.0,-71.0,-63.0,-44.0,-35.0,-22.0,-36.0,-22.0,0.0,0.0,0.0,0.0,0.0,0.0,0.0,0.0,2
-33.0,-44.0,-63.0,-45.0,-37.0,-22.0,-26.0,-7.0,0.0,0.0,0.0,0.0,0.0,0.0,0.0,0.0,2
-38.0,-28.0,-77.0,-62.0,-50.0,-23.0,-21.0,1.0,0.0,0.0,0.0,0.0,0.0,0.0,0.0,0.0,2
-30.0,-17.0,-97.0,-83.0,-63.0,-32.0,-20.0,-2.0,0.0,0.0,0.0,0.0,0.0,0.0,0.0,0.0,2
-17.0,0.0,-108.0,-95.0,-73.0,-42.0,-26.0,-4.0,0.0,0.0,0.0,0.0,0.0,0.0,0.0,0.0,2
6.0,18.0,-82.0,-86.0,-70.0,-45.0,-23.0,-11.0,0.0,0.0,0.0,0.0,0.0,0.0,0.0,0.0,2
-9.0,7.0,-65.0,-77.0,-68.0,-51.0,-23.0,-15.0,0.0,0.0,0.0,0.0,0.0,0.0,0.0,0.0,2
-46.0,-1.0,-51.0,-81.0,-73.0,-55.0,-28.0,-22.0,0.0,0.0,0.0,0.0,0.0,0.0,0.0,0.0,2
-52.0,-18.0,-37.0,-80.0,-65.0,-52.0,-27.0,-34.0,0.0,0.0,0.0,0.0,0.0,0.0,0.0,0.0,2
-43.0,-58.0,-39.0,-70.0,-60.0,-58.0,-29.0,-42.0,0.0,0.0,0.0,0.0,0.0,0.0,0.0,0.0,2
-41.0,-89.0,-51.0,-61.0,-59.0,-51.0,-38.0,-43.0,0.0,0.0,0.0,0.0,0.0,0.0,0.0,0.0,2
-56.0,-90.0,-52.0,-69.0,-60.0,-42.0,-39.0,-41.0,0.0,0.0,0.0,0.0,0.0,0.0,0.0,0.0,2
-58.0,-62.0,-37.0,-64.0,-59.0,-40.0,-41.0,-30.0,0.0,0.0,0.0,0.0,0.0,0.0,0.0,0.0,2
-22.0,-32.0,-16.0,-45.0,-40.0,-36.0,-43.0,-41.0,0.0,0.0,0.0,0.0,0.0,0.0,0.0,0.0,2
2.0,-30.0,-27.0,-34.0,-31.0,-26.0,-40.0,-53.0,0.0,0.0,0.0,0.0,0.0,0.0,0.0,0.0,2
-2.0,-17.0,-50.0,-46.0,-40.0,-20.0,-42.0,-57.0,0.0,0.0,0.0,0.0,0.0,0.0,0.0,0.0,2
12.0,-15.0,-63.0,-48.0,-40.0,-21.0,-43.0,-56.0,0.0,0.0,0.0,0.0,0.0,0.0,0.0,0.0,2
15.0,-14.0,-57.0,-39.0,-45.0,-22.0,-39.0,-50.0,0.0,0.0,0.0,0.0,0.0,0.0,0.0,0.0,2
10.0,-2.0,-31.0,-31.0,-45.0,-18.0,-34.0,-45.0,0.0,0.0,0.0,0.0,0.0,0.0,0.0,0.0,2
20.0,2.0,-15.0,-18.0,-33.0,-15.0,-22.0,-47.0,0.0,0.0,0.0,0.0,0.0,0.0,0.0,0.0,2
-12.0,-9.0,-21.0,-13.0,-27.0,-22.0,-27.0,-40.0,0.0,0.0,0.0,0.0,0.0,0.0,0.0,0.0,2
-62.0,-7.0,-25.0,8.0,-13.0,-24.0,-26.0,-27.0,0.0,0.0,0.0,0.0,0.0,0.0,0.0,0.0,2
-68.0,13.0,-9.0,22.0,-19.0,-30.0,-24.0,-20.0,0.0,0.0,0.0,0.0,0.0,0.0,0.0,0.0,2
-42.0,13.0,-12.0,19.0,-29.0,-30.0,-28.0,-21.0,0.0,0.0,0.0,0.0,0.0,0.0,0.0,0.0,2
-38.0,-6.0,0.0,21.0,-36.0,-34.0,-28.0,-22.0,0.0,0.0,0.0,0.0,0.0,0.0,0.0,0.0,2
-31.0,-28.0,9.0,32.0,-25.0,-31.0,-26.0,-33.0,0.0,0.0,0.0,0.0,0.0,0.0,0.0,0.0,2
-37.0,-44.0,-5.0,24.0,-22.0,-28.0,-27.0,-29.0,0.0,0.0,0.0,0.0,0.0,0.0,0.0,0.0,2
-63.0,-68.0,-51.0,-5.0,-36.0,-39.0,-29.0,-40.0,0.0,0.0,0.0,0.0,0.0,0.0,0.0,0.0,2
-67.0,-83.0,-49.0,-28.0,-48.0,-38.0,-39.0,-48.0,0.0,0.0,0.0,0.0,0.0,0.0,0.0,0.0,2
-38.0,-80.0,-26.0,-37.0,-42.0,-25.0,-28.0,-46.0,0.0,0.0,0.0,0.0,0.0,0.0,0.0,0.0,2
-4.0,-66.0,-10.0,-49.0,-34.0,-29.0,-24.0,-46.0,0.0,0.0,0.0,0.0,0.0,0.0,0.0,0.0,2
-3.0,-52.0,6.0,-49.0,-32.0,-38.0,-22.0,-35.0,0.0,0.0,0.0,0.0,0.0,0.0,0.0,0.0,2
-6.0,-41.0,23.0,-48.0,-24.0,-39.0,-34.0,-31.0,0.0,0.0,0.0,0.0,0.0,0.0,0.0,0.0,2
-16.0,-31.0,11.0,-57.0,-37.0,-37.0,-51.0,-41.0,0.0,0.0,0.0,0.0,0.0,0.0,0.0,0.0,2
-44.0,-36.0,-23.0,-76.0,-45.0,-51.0,-57.0,-36.0,0.0,0.0,0.0,0.0,0.0,0.0,0.0,0.0,2
-89.0,-40.0,-42.0,-77.0,-41.0,-48.0,-48.0,-40.0,0.0,0.0,0.0,0.0,0.0,0.0,0.0,0.0,2
-59.0,-45.0,-42.0,-74.0,-33.0,-42.0,-58.0,-53.0,0.0,0.0,0.0,0.0,0.0,0.0,0.0,0.0,2
2.0,-60.0,-39.0,-69.0,-33.0,-40.0,-64.0,-51.0,0.0,0.0,0.0,0.0,0.0,0.0,0.0,0.0,2
-11.0,-58.0,-24.0,-51.0,-27.0,-43.0,-62.0,-52.0,0.0,0.0,0.0,0.0,0.0,0.0,0.0,0.0,2
-29.0,-43.0,-44.0,-57.0,-33.0,-35.0,-54.0,-51.0,0.0,0.0,0.0,0.0,0.0,0.0,0.0,0.0,2
-69.0,-81.0,-128.0,-82.0,-47.0,-29.0,-46.0,-61.0,0.0,0.0,0.0,0.0,0.0,0.0,0.0,0.0,2
-143.0,-98.0,-143.0,-94.0,-59.0,-26.0,-42.0,-56.0,0.0,0.0,0.0,0.0,0.0,0.0,0.0,0.0,2
-163.0,-92.0,-104.0,-58.0,-57.0,-33.0,-47.0,-58.0,0.0,0.0,0.0,0.0,0.0,0.0,0.0,0.0,2
-110.0,-66.0,-32.0,-20.0,-41.0,-35.0,-39.0,-45.0,0.0,0.0,0.0,0.0,0.0,0.0,0.0,0.0,2
-30.0,-13.0,42.0,48.0,-19.0,-30.0,-32.0,-24.0,0.0,0.0,0.0,0.0,0.0,0.0,0.0,0.0,2
-1.0,20.0,97.0,102.0,3.0,-23.0,-39.0,-23.0,0.0,0.0,0.0,0.0,0.0,0.0,0.0,0.0,2
-8.0,6.0,59.0,67.0,-14.0,-32.0,-44.0,-22.0,0.0,0.0,0.0,0.0,0.0,0.0,0.0,0.0,2
-31.0,-32.0,-21.0,22.0,-23.0,-20.0,-25.0,-6.0,0.0,0.0,0.0,0.0,0.0,0.0,0.0,0.0,2
-28.0,-77.0,-66.0,-22.0,-18.0,-23.0,-17.0,-5.0,0.0,0.0,0.0,0.0,0.0,0.0,0.0,0.0,2
0.0,-91.0,-91.0,-65.0,-38.0,-43.0,-30.0,-29.0,0.0,0.0,0.0,0.0,0.0,0.0,0.0,0.0,2
5.0,-63.0,-94.0,-66.0,-52.0,-54.0,-41.0,-44.0,0.0,0.0,0.0,0.0,0.0,0.0,0.0,0.0,2
-21.0,-33.0,-79.0,-62.0,-31.0,-38.0,-13.0,-26.0,0.0,0.0,0.0,0.0,0.0,0.0,0.0,0.0,2
-22.0,-2.0,-68.0,-66.0,-12.0,-22.0,2.0,-2.0,0.0,0.0,0.0,0.0,0.0,0.0,0.0,0.0,2
10.0,48.0,-66.0,-78.0,-19.0,-20.0,3.0,-2.0,0.0,0.0,0.0,0.0,0.0,0.0,0.0,0.0,2
46.0,109.0,-88.0,-111.0,-44.0,-24.0,-17.0,-7.0,0.0,0.0,0.0,0.0,0.0,0.0,0.0,0.0,2
94.0,209.0,-148.0,-156.0,-62.0,-31.0,-31.0,-24.0,0.0,0.0,0.0,0.0,0.0,0.0,0.0,0.0,2
125.0,245.0,-174.0,-181.0,-75.0,-36.0,-31.0,-46.0,0.0,0.0,0.0,0.0,0.0,0.0,0.0,0.0,2
96.0,139.0,-148.0,-167.0,-82.0,-44.0,-38.0,-52.0,0.0,0.0,0.0,0.0,0.0,0.0,0.0,0.0,2
43.0,15.0,-114.0,-131.0,-79.0,-45.0,-58.0,-64.0,0.0,0.0,0.0,0.0,0.0,0.0,0.0,0.0,2
7.0,-83.0,-31.0,-69.0,-57.0,-46.0,-77.0,-67.0,0.0,0.0,0.0,0.0,0.0,0.0,0.0,0.0,2
-16.0,-130.0,121.0,87.0,-9.0,-31.0,-61.0,-42.0,0.0,0.0,0.0,0.0,0.0,0.0,0.0,0.0,2
-97.0,-170.0,206.0,180.0,21.0,-5.0,-27.0,-10.0,0.0,0.0,0.0,0.0,0.0,0.0,0.0,0.0,2
-160.0,-205.0,154.0,147.0,5.0,-3.0,1.0,-9.0,0.0,0.0,0.0,0.0,0.0,0.0,0.0,0.0,2
-160.0,-213.0,13.0,52.0,-32.0,-26.0,15.0,-4.0,0.0,0.0,0.0,0.0,0.0,0.0,0.0,0.0,2
-142.0,-184.0,-44.0,-15.0,-53.0,-28.0,3.0,1.0,0.0,0.0,0.0,0.0,0.0,0.0,0.0,0.0,2
-153.0,-162.0,-45.0,-24.0,-54.0,-15.0,-13.0,1.0,0.0,0.0,0.0,0.0,0.0,0.0,0.0,0.0,2
-116.0,-140.0,-49.0,-10.0,-44.0,20.0,-7.0,-2.0,0.0,0.0,0.0,0.0,0.0,0.0,0.0,0.0,2
-27.0,-64.0,-53.0,-16.0,-31.0,45.0,56.0,5.0,0.0,0.0,0.0,0.0,0.0,0.0,0.0,0.0,2
48.0,20.0,-46.0,-33.0,-35.0,25.0,62.0,12.0,0.0,0.0,0.0,0.0,0.0,0.0,0.0,0.0,2
67.0,57.0,-41.0,-45.0,-50.0,-8.0,13.0,-12.0,0.0,0.0,0.0,0.0,0.0,0.0,0.0,0.0,2
57.0,37.0,-47.0,-45.0,-52.0,-40.0,-37.0,-28.0,0.0,0.0,0.0,0.0,0.0,0.0,0.0,0.0,2
4.0,-3.0,-54.0,-50.0,-60.0,-87.0,-104.0,-64.0,0.0,0.0,0.0,0.0,0.0,0.0,0.0,0.0,2
-60.0,18.0,-52.0,-56.0,-71.0,-101.0,-198.0,-135.0,0.0,0.0,0.0,0.0,0.0,0.0,0.0,0.0,2
-26.0,59.0,-22.0,-51.0,-62.0,-100.0,-270.0,-171.0,0.0,0.0,0.0,0.0,0.0,0.0,0.0,0.0,2
50.0,89.0,2.0,-48.0,-59.0,-128.0,-272.0,-172.0,0.0,0.0,0.0,0.0,0.0,0.0,0.0,0.0,2
44.0,20.0,-9.0,-55.0,-58.0,-129.0,-211.0,-143.0,0.0,0.0,0.0,0.0,0.0,0.0,0.0,0.0,2
-1.0,-77.0,-51.0,-63.0,-75.0,-118.0,-112.0,-108.0,0.0,0.0,0.0,0.0,0.0,0.0,0.0,0.0,2
-39.0,-54.0,-75.0,-76.0,-73.0,-34.0,50.0,-36.0,0.0,0.0,0.0,0.0,0.0,0.0,0.0,0.0,2
-57.0,-14.0,-89.0,-81.0,-61.0,40.0,240.0,38.0,0.0,0.0,0.0,0.0,0.0,0.0,0.0,0.0,2
33.0,59.0,-56.0,-49.0,-39.0,49.0,251.0,101.0,0.0,0.0,0.0,0.0,0.0,0.0,0.0,0.0,2
72.0,20.0,-65.0,-37.0,-32.0,41.0,186.0,151.0,0.0,0.0,0.0,0.0,0.0,0.0,0.0,0.0,2
-122.0,-119.0,-115.0,-59.0,-61.0,34.0,89.0,80.0,0.0,0.0,0.0,0.0,0.0,0.0,0.0,0.0,2
-224.0,-195.0,-132.0,-80.0,-75.0,-3.0,-65.0,-17.0,0.0,0.0,0.0,0.0,0.0,0.0,0.0,0.0,2
-225.0,-161.0,-110.0,-71.0,-82.0,-79.0,-217.0,-34.0,0.0,0.0,0.0,0.0,0.0,0.0,0.0,0.0,2
-150.0,-74.0,-76.0,-45.0,-68.0,-69.0,-149.0,47.0,0.0,0.0,0.0,0.0,0.0,0.0,0.0,0.0,2
-6.0,28.0,-27.0,-4.0,-18.0,35.0,38.0,116.0,0.0,0.0,0.0,0.0,0.0,0.0,0.0,0.0,2
21.0,91.0,7.0,25.0,7.0,44.0,100.0,98.0,0.0,0.0,0.0,0.0,0.0,0.0,0.0,0.0,2
-8.0,118.0,15.0,14.0,-14.0,-24.0,78.0,-6.0,0.0,0.0,0.0,0.0,0.0,0.0,0.0,0.0,2
5.0,160.0,0.0,-12.0,-46.0,-60.0,24.0,-136.0,0.0,0.0,0.0,0.0,0.0,0.0,0.0,0.0,2
97.0,196.0,-6.0,-23.0,-51.0,-76.0,-48.0,-188.0,0.0,0.0,0.0,0.0,0.0,0.0,0.0,0.0,2
328.0,142.0,21.0,2.0,-20.0,-50.0,-58.0,-151.0,0.0,0.0,0.0,0.0,0.0,0.0,0.0,0.0,2
342.0,-17.0,22.0,27.0,14.0,-19.0,-5.0,-88.0,0.0,0.0,0.0,0.0,0.0,0.0,0.0,0.0,2
115.0,-144.0,15.0,35.0,20.0,-16.0,-49.0,-112.0,0.0,0.0,0.0,0.0,0.0,0.0,0.0,0.0,2
-167.0,-190.0,-12.0,-11.0,-14.0,-65.0,-111.0,-161.0,0.0,0.0,0.0,0.0,0.0,0.0,0.0,0.0,2
-420.0,-255.0,-11.0,-49.0,-31.0,-88.0,-141.0,-92.0,0.0,0.0,0.0,0.0,0.0,0.0,0.0,0.0,2
-556.0,-253.0,26.0,-27.0,-20.0,-75.0,-152.0,-60.0,0.0,0.0,0.0,0.0,0.0,0.0,0.0,0.0,2
-385.0,-81.0,118.0,-4.0,-16.0,-52.0,-135.0,34.0,0.0,0.0,0.0,0.0,0.0,0.0,0.0,0.0,2
-148.0,-13.0,180.0,6.0,-34.0,-78.0,-185.0,88.0,0.0,0.0,0.0,0.0,0.0,0.0,0.0,0.0,2
-70.0,-129.0,139.0,25.0,-22.0,3.0,-280.0,-97.0,0.0,0.0,0.0,0.0,0.0,0.0,0.0,0.0,2
138.0,-120.0,38.0,28.0,10.0,107.0,-109.0,-126.0,0.0,0.0,0.0,0.0,0.0,0.0,0.0,0.0,2
412.0,91.0,3.0,-3.0,-15.0,-2.0,-107.0,-93.0,0.0,0.0,0.0,0.0,0.0,0.0,0.0,0.0,2
329.0,212.0,-43.0,-53.0,-66.0,-110.0,-209.0,-143.0,0.0,0.0,0.0,0.0,0.0,0.0,0.0,0.0,2
122.0,277.0,-55.0,-81.0,-66.0,-48.0,-24.0,-76.0,0.0,0.0,0.0,0.0,0.0,0.0,0.0,0.0,2
-37.0,182.0,-111.0,-111.0,-81.0,-27.0,120.0,-11.0,0.0,0.0,0.0,0.0,0.0,0.0,0.0,0.0,2
-101.0,-24.0,-192.0,-136.0,-91.0,15.0,187.0,14.0,0.0,0.0,0.0,0.0,0.0,0.0,0.0,0.0,2
-159.0,-302.0,-248.0,-119.0,-63.0,134.0,372.0,60.0,0.0,0.0,0.0,0.0,0.0,0.0,0.0,0.0,2
-197.0,-395.0,-225.0,-86.0,-15.0,211.0,606.0,219.0,0.0,0.0,0.0,0.0,0.0,0.0,0.0,0.0,2
-173.0,-393.0,-167.0,-52.0,0.0,77.0,377.0,310.0,0.0,0.0,0.0,0.0,0.0,0.0,0.0,0.0,2
-160.0,-468.0,-158.0,-48.0,-42.0,-107.0,66.0,225.0,0.0,0.0,0.0,0.0,0.0,0.0,0.0,0.0,2
-104.0,-512.0,-167.0,-54.0,-46.0,-53.0,79.0,133.0,0.0,0.0,0.0,0.0,0.0,0.0,0.0,0.0,2
-19.0,-383.0,-148.0,-66.0,-47.0,-107.0,-141.0,-169.0,0.0,0.0,0.0,0.0,0.0,0.0,0.0,0.0,2
-15.0,-185.0,-134.0,-58.0,-55.0,-207.0,-341.0,-369.0,0.0,0.0,0.0,0.0,0.0,0.0,0.0,0.0,2
-99.0,-34.0,-109.0,-71.0,-56.0,-225.0,-476.0,-316.0,0.0,0.0,0.0,0.0,0.0,0.0,0.0,0.0,2
-76.0,222.0,23.0,-36.0,-15.0,-151.0,-484.0,-220.0,0.0,0.0,0.0,0.0,0.0,0.0,0.0,0.0,2
-14.0,369.0,149.0,51.0,38.0,-80.0,-379.0,-117.0,0.0,0.0,0.0,0.0,0.0,0.0,0.0,0.0,2
161.0,382.0,154.0,45.0,10.0,-106.0,-179.0,-89.0,0.0,0.0,0.0,0.0,0.0,0.0,0.0,0.0,2
160.0,244.0,91.0,-5.0,-3.0,-17.0,100.0,-95.0,0.0,0.0,0.0,0.0,0.0,0.0,0.0,0.0,2
-51.0,-27.0,-16.0,-41.0,-24.0,-9.0,197.0,-84.0,0.0,0.0,0.0,0.0,0.0,0.0,0.0,0.0,2
-44.0,-97.0,-91.0,-90.0,-68.0,-59.0,192.0,-76.0,0.0,0.0,0.0,0.0,0.0,0.0,0.0,0.0,2
35.0,-39.0,-69.0,-70.0,-58.0,-64.0,1.0,-100.0,0.0,0.0,0.0,0.0,0.0,0.0,0.0,0.0,2
27.0,-53.0,-62.0,-52.0,-40.0,-155.0,-335.0,-122.0,0.0,0.0,0.0,0.0,0.0,0.0,0.0,0.0,2
17.0,23.0,-44.0,-45.0,-45.0,-262.0,-600.0,-118.0,0.0,0.0,0.0,0.0,0.0,0.0,0.0,0.0,2
111.0,181.0,39.0,-3.0,-55.0,-249.0,-566.0,-112.0,0.0,0.0,0.0,0.0,0.0,0.0,0.0,0.0,2
-19.0,111.0,75.0,-26.0,-109.0,-212.0,-237.0,-137.0,0.0,0.0,0.0,0.0,0.0,0.0,0.0,0.0,2
-289.0,-48.0,26.0,-101.0,-171.0,-56.0,124.0,-178.0,0.0,0.0,0.0,0.0,0.0,0.0,0.0,0.0,2
-372.0,-173.0,-62.0,-80.0,-89.0,301.0,589.0,-42.0,0.0,0.0,0.0,0.0,0.0,0.0,0.0,0.0,2
-314.0,-117.0,-20.0,38.0,62.0,499.0,767.0,202.0,0.0,0.0,0.0,0.0,0.0,0.0,0.0,0.0,2
-260.0,-140.0,-62.0,33.0,40.0,265.0,368.0,155.0,0.0,0.0,0.0,0.0,0.0,0.0,0.0,0.0,2
-75.0,-275.0,-106.0,6.0,13.0,104.0,81.0,117.0,0.0,0.0,0.0,0.0,0.0,0.0,0.0,0.0,2
109.0,-250.0,-22.0,26.0,30.0,90.0,67.0,139.0,0.0,0.0,0.0,0.0,0.0,0.0,0.0,0.0,2
245.0,-75.0,106.0,65.0,49.0,111.0,221.0,155.0,0.0,0.0,0.0,0.0,0.0,0.0,0.0,0.0,2
420.0,85.0,184.0,72.0,41.0,87.0,217.0,119.0,0.0,0.0,0.0,0.0,0.0,0.0,0.0,0.0,2
710.0,157.0,141.0,19.0,-14.0,-10.0,64.0,93.0,0.0,0.0,0.0,0.0,0.0,0.0,0.0,0.0,2
680.0,148.0,-3.0,-45.0,-55.0,-73.0,-11.0,49.0,0.0,0.0,0.0,0.0,0.0,0.0,0.0,0.0,2
272.0,86.0,-110.0,-113.0,-110.0,-116.0,-70.0,-36.0,0.0,0.0,0.0,0.0,0.0,0.0,0.0,0.0,2
-248.0,208.0,-65.0,-113.0,-108.0,-99.0,-30.0,56.0,0.0,0.0,0.0,0.0,0.0,0.0,0.0,0.0,2
-620.0,461.0,99.0,-64.0,-62.0,-58.0,31.0,109.0,0.0,0.0,0.0,0.0,0.0,0.0,0.0,0.0,2
-631.0,551.0,230.0,25.0,10.0,-13.0,63.0,61.0,0.0,0.0,0.0,0.0,0.0,0.0,0.0,0.0,2
-391.0,499.0,222.0,39.0,-2.0,-69.0,-63.0,-119.0,0.0,0.0,0.0,0.0,0.0,0.0,0.0,0.0,2
-141.0,417.0,185.0,25.0,-35.0,-180.0,-201.0,-177.0,0.0,0.0,0.0,0.0,0.0,0.0,0.0,0.0,2
-154.0,202.0,129.0,31.0,-12.0,-138.0,-262.0,-169.0,0.0,0.0,0.0,0.0,0.0,0.0,0.0,0.0,2
-174.0,-153.0,-63.0,-41.0,-33.0,-65.0,-216.0,-179.0,0.0,0.0,0.0,0.0,0.0,0.0,0.0,0.0,2
25.0,-591.0,-380.0,-184.0,-108.0,-121.0,-260.0,-212.0,0.0,0.0,0.0,0.0,0.0,0.0,0.0,0.0,2
217.0,-1023.0,-701.0,-313.0,-176.0,-239.0,-466.0,-298.0,0.0,0.0,0.0,0.0,0.0,0.0,0.0,0.0,2
277.0,-1030.0,-679.0,-234.0,-113.0,-137.0,-346.0,-216.0,0.0,0.0,0.0,0.0,0.0,0.0,0.0,0.0,2
173.0,-671.0,-382.0,-102.0,-20.0,-35.0,-176.0,-108.0,0.0,0.0,0.0,0.0,0.0,0.0,0.0,0.0,2
4.0,-341.0,-183.0,-56.0,-20.0,-42.0,-138.0,-73.0,0.0,0.0,0.0,0.0,0.0,0.0,0.0,0.0,2
118.0,32.0,23.0,38.0,27.0,-36.0,-112.0,23.0,0.0,0.0,0.0,0.0,0.0,0.0,0.0,0.0,2
60.0,219.0,128.0,57.0,29.0,-74.0,-109.0,23.0,0.0,0.0,0.0,0.0,0.0,0.0,0.0,0.0,2
-214.0,107.0,116.0,56.0,6.0,-106.0,-96.0,3.0,0.0,0.0,0.0,0.0,0.0,0.0,0.0,0.0,2
-232.0,-101.0,33.0,55.0,30.0,-27.0,10.0,33.0,0.0,0.0,0.0,0.0,0.0,0.0,0.0,0.0,2
-269.0,-261.0,-97.0,-23.0,3.0,-48.0,48.0,35.0,0.0,0.0,0.0,0.0,0.0,0.0,0.0,0.0,2
-412.0,-490.0,-228.0,-68.0,-17.0,-46.0,37.0,-8.0,0.0,0.0,0.0,0.0,0.0,0.0,0.0,0.0,2
