CH1,CH2,CH3,CH4,CH5,CH6,CH7,CH8,CH9,CH10,CH11,CH12,CH13,CH14,CH15,CH16,label
-5834.0,-10326.0,-6019.0,-2428.0,1875.0,5.0,825.0,380.0,0.0,0.0,0.0,0.0,0.0,0.0,0.0,0.0,0
-3873.0,-6825.0,-3995.0,-1623.0,1213.0,-8.0,561.0,251.0,0.0,0.0,0.0,0.0,0.0,0.0,0.0,0.0,0
-2303.0,-3962.0,-2323.0,-956.0,679.0,-11.0,389.0,150.0,0.0,0.0,0.0,0.0,0.0,0.0,0.0,0.0,0
-1048.0,-1663.0,-970.0,-413.0,259.0,-14.0,246.0,74.0,0.0,0.0,0.0,0.0,0.0,0.0,0.0,0.0,0
-61.0,147.0,83.0,9.0,-59.0,-28.0,112.0,15.0,0.0,0.0,0.0,0.0,0.0,0.0,0.0,0.0,0
664.0,1525.0,883.0,325.0,-306.0,-31.0,12.0,-26.0,0.0,0.0,0.0,0.0,0.0,0.0,0.0,0.0,0
1181.0,2526.0,1461.0,573.0,-486.0,-36.0,-67.0,-61.0,0.0,0.0,0.0,0.0,0.0,0.0,0.0,0.0,0
1551.0,3221.0,1863.0,739.0,-608.0,-39.0,-165.0,-84.0,0.0,0.0,0.0,0.0,0.0,0.0,0.0,0.0,0
1856.0,3665.0,2118.0,844.0,-683.0,-31.0,-298.0,-121.0,0.0,0.0,0.0,0.0,0.0,0.0,0.0,0.0,0
2059.0,3870.0,2243.0,900.0,-709.0,-31.0,-391.0,-143.0,0.0,0.0,0.0,0.0,0.0,0.0,0.0,0.0,0
2142.0,3912.0,2266.0,907.0,-718.0,-23.0,-413.0,-151.0,0.0,0.0,0.0,0.0,0.0,0.0,0.0,0.0,0
2113.0,3831.0,2222.0,881.0,-704.0,-21.0,-375.0,-148.0,0.0,0.0,0.0,0.0,0.0,0.0,0.0,0.0,0
2106.0,3666.0,2134.0,848.0,-668.0,-21.0,-475.0,-168.0,0.0,0.0,0.0,0.0,0.0,0.0,0.0,0.0,0
2120.0,3423.0,1994.0,798.0,-631.0,-10.0,-593.0,-194.0,0.0,0.0,0.0,0.0,0.0,0.0,0.0,0.0,0
2106.0,3122.0,1813.0,734.0,-584.0,-5.0,-666.0,-216.0,0.0,0.0,0.0,0.0,0.0,0.0,0.0,0.0,0
2059.0,2786.0,1625.0,673.0,-522.0,1.0,-677.0,-229.0,0.0,0.0,0.0,0.0,0.0,0.0,0.0,0.0,0
1934.0,2453.0,1431.0,606.0,-446.0,2.0,-584.0,-233.0,0.0,0.0,0.0,0.0,0.0,0.0,0.0,0.0,0
1745.0,2097.0,1215.0,523.0,-374.0,2.0,-476.0,-220.0,0.0,0.0,0.0,0.0,0.0,0.0,0.0,0.0,0
1498.0,1701.0,980.0,422.0,-302.0,-12.0,-378.0,-203.0,0.0,0.0,0.0,0.0,0.0,0.0,0.0,0.0,0
1167.0,1286.0,733.0,310.0,-235.0,-21.0,-200.0,-174.0,0.0,0.0,0.0,0.0,0.0,0.0,0.0,0.0,0
797.0,859.0,481.0,203.0,-163.0,-24.0,-54.0,-131.0,0.0,0.0,0.0,0.0,0.0,0.0,0.0,0.0,0
411.0,420.0,222.0,96.0,-93.0,-29.0,44.0,-92.0,0.0,0.0,0.0,0.0,0.0,0.0,0.0,0.0,0
2.0,-26.0,-30.0,-17.0,-31.0,-42.0,149.0,-51.0,0.0,0.0,0.0,0.0,0.0,0.0,0.0,0.0,0
-378.0,-473.0,-283.0,-128.0,43.0,-44.0,226.0,-8.0,0.0,0.0,0.0,0.0,0.0,0.0,0.0,0.0,0
-687.0,-887.0,-537.0,-250.0,109.0,-42.0,289.0,34.0,0.0,0.0,0.0,0.0,0.0,0.0,0.0,0.0,0
-1003.0,-1283.0,-783.0,-372.0,157.0,-53.0,360.0,66.0,0.0,0.0,0.0,0.0,0.0,0.0,0.0,0.0,0
-1301.0,-1643.0,-999.0,-480.0,198.0,-71.0,373.0,95.0,0.0,0.0,0.0,0.0,0.0,0.0,0.0,0.0,0
-1537.0,-1960.0,-1183.0,-565.0,244.0,-79.0,363.0,122.0,0.0,0.0,0.0,0.0,0.0,0.0,0.0,0.0,0
-1683.0,-2215.0,-1333.0,-614.0,288.0,-81.0,323.0,133.0,0.0,0.0,0.0,0.0,0.0,0.0,0.0,0.0,0
-1760.0,-2400.0,-1430.0,-635.0,334.0,-83.0,308.0,127.0,0.0,0.0,0.0,0.0,0.0,0.0,0.0,0.0,0
-1771.0,-2525.0,-1510.0,-661.0,367.0,-78.0,251.0,124.0,0.0,0.0,0.0,0.0,0.0,0.0,0.0,0.0,0
-1736.0,-2563.0,-1534.0,-671.0,380.0,-71.0,148.0,109.0,0.0,0.0,0.0,0.0,0.0,0.0,0.0,0.0,0
-1613.0,-2505.0,-1495.0,-662.0,369.0,-62.0,53.0,84.0,0.0,0.0,0.0,0.0,0.0,0.0,0.0,0.0,0
-1429.0,-2375.0,-1413.0,-624.0,357.0,-62.0,12.0,57.0,0.0,0.0,0.0,0.0,0.0,0.0,0.0,0.0,0
-1215.0,-2185.0,-1302.0,-568.0,340.0,-54.0,-26.0,41.0,0.0,0.0,0.0,0.0,0.0,0.0,0.0,0.0,0
-1008.0,-1959.0,-1174.0,-513.0,314.0,-44.0,-69.0,9.0,0.0,0.0,0.0,0.0,0.0,0.0,0.0,0.0,0
-844.0,-1724.0,-1029.0,-439.0,281.0,-27.0,-45.0,-11.0,0.0,0.0,0.0,0.0,0.0,0.0,0.0,0.0,0
-673.0,-1457.0,-865.0,-374.0,241.0,-21.0,-30.0,-20.0,0.0,0.0,0.0,0.0,0.0,0.0,0.0,0.0,0
-517.0,-1182.0,-712.0,-308.0,194.0,-22.0,-14.0,-29.0,0.0,0.0,0.0,0.0,0.0,0.0,0.0,0.0,0
-439.0,-939.0,-575.0,-257.0,148.0,-19.0,81.0,-22.0,0.0,0.0,0.0,0.0,0.0,0.0,0.0,0.0,0
-400.0,-727.0,-445.0,-212.0,109.0,-20.0,132.0,-15.0,0.0,0.0,0.0,0.0,0.0,0.0,0.0,0.0,0
-377.0,-552.0,-333.0,-164.0,63.0,-31.0,139.0,-11.0,0.0,0.0,0.0,0.0,0.0,0.0,0.0,0.0,0
-359.0,-391.0,-235.0,-133.0,28.0,-41.0,165.0,-2.0,0.0,0.0,0.0,0.0,0.0,0.0,0.0,0.0,0
-343.0,-256.0,-150.0,-97.0,7.0,-39.0,169.0,5.0,0.0,0.0,0.0,0.0,0.0,0.0,0.0,0.0,0
-338.0,-154.0,-91.0,-56.0,-4.0,-30.0,159.0,15.0,0.0,0.0,0.0,0.0,0.0,0.0,0.0,0.0,0
-350.0,-80.0,-50.0,-24.0,-7.0,-32.0,179.0,34.0,0.0,0.0,0.0,0.0,0.0,0.0,0.0,0.0,0
-364.0,-38.0,-14.0,4.0,-11.0,-37.0,154.0,41.0,0.0,0.0,0.0,0.0,0.0,0.0,0.0,0.0,0
-342.0,-2.0,12.0,21.0,-19.0,-43.0,94.0,34.0,0.0,0.0,0.0,0.0,0.0,0.0,0.0,0.0,0
-267.0,44.0,40.0,39.0,-27.0,-38.0,16.0,19.0,0.0,0.0,0.0,0.0,0.0,0.0,0.0,0.0,0
-168.0,96.0,68.0,64.0,-28.0,-29.0,-28.0,11.0,0.0,0.0,0.0,0.0,0.0,0.0,0.0,0.0,0
-49.0,151.0,90.0,85.0,-35.0,-22.0,-112.0,-14.0,0.0,0.0,0.0,0.0,0.0,0.0,0.0,0.0,0
89.0,200.0,125.0,104.0,-52.0,-19.0,-212.0,-35.0,0.0,0.0,0.0,0.0,0.0,0.0,0.0,0.0,0
262.0,273.0,168.0,122.0,-64.0,-14.0,-290.0,-59.0,0.0,0.0,0.0,0.0,0.0,0.0,0.0,0.0,0
419.0,361.0,223.0,131.0,-72.0,-6.0,-317.0,-88.0,0.0,0.0,0.0,0.0,0.0,0.0,0.0,0.0,0
562.0,458.0,285.0,144.0,-96.0,-1.0,-329.0,-106.0,0.0,0.0,0.0,0.0,0.0,0.0,0.0,0.0,0
706.0,576.0,348.0,159.0,-125.0,-3.0,-344.0,-123.0,0.0,0.0,0.0,0.0,0.0,0.0,0.0,0.0,0
798.0,717.0,425.0,179.0,-148.0,-4.0,-289.0,-128.0,0.0,0.0,0.0,0.0,0.0,0.0,0.0,0.0,0
841.0,837.0,490.0,184.0,-171.0,1.0,-230.0,-132.0,0.0,0.0,0.0,0.0,0.0,0.0,0.0,0.0,0
856.0,925.0,526.0,178.0,-198.0,-7.0,-186.0,-128.0,0.0,0.0,0.0,0.0,0.0,0.0,0.0,0.0,0
802.0,973.0,539.0,179.0,-222.0,-16.0,-88.0,-119.0,0.0,0.0,0.0,0.0,0.0,0.0,0.0,0.0,0
719.0,984.0,534.0,161.0,-234.0,-25.0,-19.0,-103.0,0.0,0.0,0.0,0.0,0.0,0.0,0.0,0.0,0
614.0,954.0,506.0,145.0,-231.0,-31.0,-5.0,-93.0,0.0,0.0,0.0,0.0,0.0,0.0,0.0,0.0,0
488.0,883.0,461.0,135.0,-212.0,-30.0,28.0,-72.0,0.0,0.0,0.0,0.0,0.0,0.0,0.0,0.0,0
365.0,782.0,404.0,111.0,-197.0,-36.0,53.0,-55.0,0.0,0.0,0.0,0.0,0.0,0.0,0.0,0.0,0
253.0,671.0,330.0,80.0,-179.0,-46.0,47.0,-45.0,0.0,0.0,0.0,0.0,0.0,0.0,0.0,0.0,0
129.0,533.0,255.0,57.0,-155.0,-41.0,79.0,-19.0,0.0,0.0,0.0,0.0,0.0,0.0,0.0,0.0,0
5.0,390.0,176.0,29.0,-117.0,-41.0,73.0,-7.0,0.0,0.0,0.0,0.0,0.0,0.0,0.0,0.0,0
-103.0,231.0,87.0,-4.0,-88.0,-46.0,57.0,-4.0,0.0,0.0,0.0,0.0,0.0,0.0,0.0,0.0,0
-169.0,94.0,4.0,-33.0,-67.0,-39.0,17.0,-3.0,0.0,0.0,0.0,0.0,0.0,0.0,0.0,0.0,0
-191.0,-15.0,-54.0,-43.0,-40.0,-33.0,-1.0,-7.0,0.0,0.0,0.0,0.0,0.0,0.0,0.0,0.0,0
-211.0,-102.0,-93.0,-45.0,-11.0,-35.0,-56.0,0.0,0.0,0.0,0.0,0.0,0.0,0.0,0.0,0.0,0
-175.0,-160.0,-119.0,-48.0,4.0,-30.0,-135.0,-13.0,0.0,0.0,0.0,0.0,0.0,0.0,0.0,0.0,0
-95.0,-194.0,-129.0,-46.0,25.0,-27.0,-184.0,-29.0,0.0,0.0,0.0,0.0,0.0,0.0,0.0,0.0,0
-15.0,-196.0,-129.0,-41.0,25.0,-17.0,-196.0,-37.0,0.0,0.0,0.0,0.0,0.0,0.0,0.0,0.0,0
58.0,-177.0,-118.0,-38.0,13.0,-10.0,-212.0,-52.0,0.0,0.0,0.0,0.0,0.0,0.0,0.0,0.0,0
127.0,-142.0,-102.0,-34.0,15.0,-16.0,-219.0,-71.0,0.0,0.0,0.0,0.0,0.0,0.0,0.0,0.0,0
190.0,-105.0,-85.0,-31.0,14.0,-13.0,-202.0,-82.0,0.0,0.0,0.0,0.0,0.0,0.0,0.0,0.0,0
231.0,-52.0,-52.0,-29.0,-3.0,-10.0,-163.0,-88.0,0.0,0.0,0.0,0.0,0.0,0.0,0.0,0.0,0
242.0,23.0,-15.0,-16.0,-19.0,-14.0,-112.0,-87.0,0.0,0.0,0.0,0.0,0.0,0.0,0.0,0.0,0
202.0,69.0,7.0,-11.0,-32.0,-27.0,-25.0,-79.0,0.0,0.0,0.0,0.0,0.0,0.0,0.0,0.0,0
134.0,76.0,15.0,-9.0,-43.0,-32.0,33.0,-58.0,0.0,0.0,0.0,0.0,0.0,0.0,0.0,0.0,0
56.0,63.0,20.0,-15.0,-53.0,-39.0,69.0,-47.0,0.0,0.0,0.0,0.0,0.0,0.0,0.0,0.0,0
-36.0,24.0,-7.0,-33.0,-62.0,-45.0,102.0,-31.0,0.0,0.0,0.0,0.0,0.0,0.0,0.0,0.0,0
-144.0,-42.0,-39.0,-51.0,-69.0,-52.0,119.0,-21.0,0.0,0.0,0.0,0.0,0.0,0.0,0.0,0.0,0
-233.0,-110.0,-78.0,-55.0,-61.0,-51.0,123.0,-7.0,0.0,0.0,0.0,0.0,0.0,0.0,0.0,0.0,0
-333.0,-188.0,-123.0,-68.0,-49.0,-53.0,163.0,15.0,0.0,0.0,0.0,0.0,0.0,0.0,0.0,0.0,0
-414.0,-260.0,-161.0,-80.0,-26.0,-54.0,160.0,24.0,0.0,0.0,0.0,0.0,0.0,0.0,0.0,0.0,0
-485.0,-327.0,-195.0,-87.0,-5.0,-52.0,136.0,33.0,0.0,0.0,0.0,0.0,0.0,0.0,0.0,0.0,0
-504.0,-375.0,-224.0,-84.0,16.0,-50.0,78.0,30.0,0.0,0.0,0.0,0.0,0.0,0.0,0.0,0.0,0
-502.0,-408.0,-240.0,-83.0,26.0,-49.0,53.0,27.0,0.0,0.0,0.0,0.0,0.0,0.0,0.0,0.0,0
-466.0,-430.0,-246.0,-95.0,30.0,-51.0,11.0,19.0,0.0,0.0,0.0,0.0,0.0,0.0,0.0,0.0,0
-382.0,-425.0,-258.0,-105.0,28.0,-47.0,-77.0,0.0,0.0,0.0,0.0,0.0,0.0,0.0,0.0,0.0,0
-278.0,-387.0,-244.0,-105.0,23.0,-48.0,-153.0,-20.0,0.0,0.0,0.0,0.0,0.0,0.0,0.0,0.0,0
-173.0,-340.0,-217.0,-107.0,19.0,-44.0,-169.0,-34.0,0.0,0.0,0.0,0.0,0.0,0.0,0.0,0.0,0
-64.0,-273.0,-163.0,-87.0,23.0,-40.0,-176.0,-51.0,0.0,0.0,0.0,0.0,0.0,0.0,0.0,0.0,0
44.0,-181.0,-103.0,-59.0,17.0,-29.0,-190.0,-63.0,0.0,0.0,0.0,0.0,0.0,0.0,0.0,0.0,0
122.0,-79.0,-46.0,-30.0,-1.0,-20.0,-146.0,-73.0,0.0,0.0,0.0,0.0,0.0,0.0,0.0,0.0,0
183.0,15.0,9.0,-9.0,-27.0,-27.0,-118.0,-79.0,0.0,0.0,0.0,0.0,0.0,0.0,0.0,0.0,0
237.0,102.0,57.0,5.0,-48.0,-30.0,-93.0,-85.0,0.0,0.0,0.0,0.0,0.0,0.0,0.0,0.0,0
223.0,163.0,86.0,12.0,-58.0,-27.0,-15.0,-80.0,0.0,0.0,0.0,0.0,0.0,0.0,0.0,0.0,0
170.0,197.0,113.0,25.0,-65.0,-36.0,33.0,-62.0,0.0,0.0,0.0,0.0,0.0,0.0,0.0,0.0,0
122.0,210.0,118.0,23.0,-69.0,-41.0,55.0,-56.0,0.0,0.0,0.0,0.0,0.0,0.0,0.0,0.0,0
57.0,200.0,112.0,6.0,-84.0,-41.0,81.0,-48.0,0.0,0.0,0.0,0.0,0.0,0.0,0.0,0.0,0
-5.0,177.0,86.0,2.0,-79.0,-37.0,86.0,-29.0,0.0,0.0,0.0,0.0,0.0,0.0,0.0,0.0,0
-57.0,127.0,54.0,-8.0,-67.0,-34.0,76.0,-23.0,0.0,0.0,0.0,0.0,0.0,0.0,0.0,0.0,0
-129.0,60.0,17.0,-35.0,-63.0,-36.0,114.0,-13.0,0.0,0.0,0.0,0.0,0.0,0.0,0.0,0.0,0
-209.0,-9.0,-26.0,-48.0,-62.0,-45.0,116.0,-3.0,0.0,0.0,0.0,0.0,0.0,0.0,0.0,0.0,0
-260.0,-75.0,-63.0,-58.0,-56.0,-49.0,84.0,4.0,0.0,0.0,0.0,0.0,0.0,0.0,0.0,0.0,0
-273.0,-138.0,-97.0,-61.0,-39.0,-50.0,43.0,6.0,0.0,0.0,0.0,0.0,0.0,0.0,0.0,0.0,0
-280.0,-194.0,-121.0,-66.0,-13.0,-38.0,33.0,-3.0,0.0,0.0,0.0,0.0,0.0,0.0,0.0,0.0,0
-266.0,-236.0,-143.0,-70.0,12.0,-25.0,-16.0,-7.0,0.0,0.0,0.0,0.0,0.0,0.0,0.0,0.0,0
-193.0,-238.0,-137.0,-59.0,18.0,-21.0,-92.0,-13.0,0.0,0.0,0.0,0.0,0.0,0.0,0.0,0.0,0
-96.0,-215.0,-119.0,-51.0,11.0,-16.0,-150.0,-30.0,0.0,0.0,0.0,0.0,0.0,0.0,0.0,0.0,0
-15.0,-177.0,-102.0,-47.0,-2.0,-21.0,-167.0,-54.0,0.0,0.0,0.0,0.0,0.0,0.0,0.0,0.0,0
77.0,-145.0,-92.0,-61.0,-18.0,-31.0,-199.0,-70.0,0.0,0.0,0.0,0.0,0.0,0.0,0.0,0.0,0
195.0,-83.0,-69.0,-57.0,-33.0,-33.0,-231.0,-80.0,0.0,0.0,0.0,0.0,0.0,0.0,0.0,0.0,0
272.0,3.0,-23.0,-37.0,-51.0,-29.0,-185.0,-73.0,0.0,0.0,0.0,0.0,0.0,0.0,0.0,0.0,0
307.0,88.0,34.0,-16.0,-58.0,-26.0,-143.0,-72.0,0.0,0.0,0.0,0.0,0.0,0.0,0.0,0.0,0
322.0,153.0,71.0,-8.0,-68.0,-19.0,-123.0,-83.0,0.0,0.0,0.0,0.0,0.0,0.0,0.0,0.0,0
279.0,190.0,91.0,-8.0,-78.0,-25.0,-38.0,-82.0,0.0,0.0,0.0,0.0,0.0,0.0,0.0,0.0,0
214.0,205.0,99.0,-2.0,-77.0,-25.0,15.0,-63.0,0.0,0.0,0.0,0.0,0.0,0.0,0.0,0.0,0
165.0,228.0,102.0,4.0,-90.0,-17.0,28.0,-51.0,0.0,0.0,0.0,0.0,0.0,0.0,0.0,0.0,0
101.0,217.0,102.0,-4.0,-94.0,-28.0,47.0,-42.0,0.0,0.0,0.0,0.0,0.0,0.0,0.0,0.0,0
52.0,178.0,85.0,-1.0,-97.0,-34.0,49.0,-31.0,0.0,0.0,0.0,0.0,0.0,0.0,0.0,0.0,0
-1.0,128.0,64.0,-7.0,-98.0,-36.0,50.0,-23.0,0.0,0.0,0.0,0.0,0.0,0.0,0.0,0.0,0
-101.0,53.0,28.0,-18.0,-83.0,-40.0,97.0,-2.0,0.0,0.0,0.0,0.0,0.0,0.0,0.0,0.0,0
-205.0,-26.0,-18.0,-26.0,-58.0,-38.0,104.0,6.0,0.0,0.0,0.0,0.0,0.0,0.0,0.0,0.0,0
-266.0,-95.0,-62.0,-17.0,-17.0,-36.0,86.0,19.0,0.0,0.0,0.0,0.0,0.0,0.0,0.0,0.0,0
-297.0,-158.0,-96.0,-17.0,3.0,-38.0,45.0,20.0,0.0,0.0,0.0,0.0,0.0,0.0,0.0,0.0,0
-325.0,-219.0,-130.0,-29.0,16.0,-37.0,38.0,20.0,0.0,0.0,0.0,0.0,0.0,0.0,0.0,0.0,0
-305.0,-262.0,-147.0,-25.0,46.0,-44.0,-3.0,8.0,0.0,0.0,0.0,0.0,0.0,0.0,0.0,0.0,0
-246.0,-265.0,-151.0,-22.0,62.0,-33.0,-80.0,-6.0,0.0,0.0,0.0,0.0,0.0,0.0,0.0,0.0,0
-170.0,-258.0,-156.0,-26.0,60.0,-33.0,-145.0,-23.0,0.0,0.0,0.0,0.0,0.0,0.0,0.0,0.0,0
-88.0,-222.0,-136.0,-28.0,47.0,-33.0,-154.0,-42.0,0.0,0.0,0.0,0.0,0.0,0.0,0.0,0.0,0
5.0,-166.0,-104.0,-23.0,29.0,-26.0,-158.0,-47.0,0.0,0.0,0.0,0.0,0.0,0.0,0.0,0.0,0
93.0,-102.0,-69.0,-28.0,3.0,-26.0,-166.0,-59.0,0.0,0.0,0.0,0.0,0.0,0.0,0.0,0.0,0
132.0,-41.0,-38.0,-40.0,-28.0,-25.0,-133.0,-77.0,0.0,0.0,0.0,0.0,0.0,0.0,0.0,0.0,0
159.0,22.0,-14.0,-49.0,-58.0,-26.0,-101.0,-74.0,0.0,0.0,0.0,0.0,0.0,0.0,0.0,0.0,0
184.0,86.0,16.0,-43.0,-82.0,-29.0,-82.0,-70.0,0.0,0.0,0.0,0.0,0.0,0.0,0.0,0.0,0
157.0,116.0,47.0,-35.0,-92.0,-33.0,-7.0,-65.0,0.0,0.0,0.0,0.0,0.0,0.0,0.0,0.0,0
103.0,143.0,63.0,-20.0,-86.0,-30.0,36.0,-50.0,0.0,0.0,0.0,0.0,0.0,0.0,0.0,0.0,0
71.0,159.0,75.0,-6.0,-81.0,-35.0,46.0,-42.0,0.0,0.0,0.0,0.0,0.0,0.0,0.0,0.0,0
27.0,149.0,71.0,-2.0,-82.0,-45.0,55.0,-33.0,0.0,0.0,0.0,0.0,0.0,0.0,0.0,0.0,0
-35.0,117.0,47.0,-2.0,-75.0,-47.0,49.0,-33.0,0.0,0.0,0.0,0.0,0.0,0.0,0.0,0.0,0
-98.0,64.0,19.0,-2.0,-60.0,-43.0,43.0,-26.0,0.0,0.0,0.0,0.0,0.0,0.0,0.0,0.0,0
-161.0,18.0,2.0,-3.0,-31.0,-36.0,76.0,-4.0,0.0,0.0,0.0,0.0,0.0,0.0,0.0,0.0,0
-225.0,-33.0,-23.0,-15.0,-12.0,-25.0,92.0,6.0,0.0,0.0,0.0,0.0,0.0,0.0,0.0,0.0,0
-280.0,-87.0,-70.0,-38.0,-13.0,-31.0,76.0,1.0,0.0,0.0,0.0,0.0,0.0,0.0,0.0,0.0,0
-267.0,-139.0,-108.0,-80.0,-27.0,-43.0,18.0,-12.0,0.0,0.0,0.0,0.0,0.0,0.0,0.0,0.0,0
-257.0,-195.0,-143.0,-116.0,-38.0,-56.0,8.0,-13.0,0.0,0.0,0.0,0.0,0.0,0.0,0.0,0.0,0
-253.0,-235.0,-177.0,-134.0,-44.0,-70.0,-33.0,-24.0,0.0,0.0,0.0,0.0,0.0,0.0,0.0,0.0,0
-137.0,-246.0,-177.0,-126.0,-41.0,-64.0,-220.0,-47.0,0.0,0.0,0.0,0.0,0.0,0.0,0.0,0.0,0
47.0,-235.0,-173.0,-124.0,-41.0,-45.0,-367.0,-80.0,0.0,0.0,0.0,0.0,0.0,0.0,0.0,0.0,0
139.0,-208.0,-147.0,-109.0,-36.0,-45.0,-283.0,-94.0,0.0,0.0,0.0,0.0,0.0,0.0,0.0,0.0,0
226.0,-154.0,-105.0,-73.0,-22.0,-37.0,-255.0,-98.0,0.0,0.0,0.0,0.0,0.0,0.0,0.0,0.0,0
268.0,-88.0,-77.0,-62.0,-26.0,-30.0,-180.0,-97.0,0.0,0.0,0.0,0.0,0.0,0.0,0.0,0.0,0
244.0,-14.0,-34.0,-48.0,-37.0,-30.0,-68.0,-89.0,0.0,0.0,0.0,0.0,0.0,0.0,0.0,0.0,0
196.0,40.0,-3.0,-19.0,-43.0,-35.0,6.0,-70.0,0.0,0.0,0.0,0.0,0.0,0.0,0.0,0.0,0
147.0,88.0,33.0,-4.0,-44.0,-36.0,33.0,-57.0,0.0,0.0,0.0,0.0,0.0,0.0,0.0,0.0,0
65.0,129.0,51.0,2.0,-50.0,-40.0,126.0,-39.0,0.0,0.0,0.0,0.0,0.0,0.0,0.0,0.0,0
-17.0,155.0,63.0,14.0,-50.0,-35.0,167.0,-14.0,0.0,0.0,0.0,0.0,0.0,0.0,0.0,0.0,0
-88.0,155.0,69.0,9.0,-52.0,-39.0,149.0,-2.0,0.0,0.0,0.0,0.0,0.0,0.0,0.0,0.0,0
-136.0,140.0,58.0,2.0,-54.0,-44.0,118.0,2.0,0.0,0.0,0.0,0.0,0.0,0.0,0.0,0.0,0
-154.0,118.0,55.0,6.0,-40.0,-41.0,93.0,-3.0,0.0,0.0,0.0,0.0,0.0,0.0,0.0,0.0,0
-192.0,89.0,46.0,10.0,-21.0,-38.0,92.0,7.0,0.0,0.0,0.0,0.0,0.0,0.0,0.0,0.0,0
-264.0,34.0,18.0,1.0,-15.0,-34.0,133.0,14.0,0.0,0.0,0.0,0.0,0.0,0.0,0.0,0.0,0
-331.0,-24.0,-20.0,-7.0,-11.0,-31.0,136.0,16.0,0.0,0.0,0.0,0.0,0.0,0.0,0.0,0.0,0
-360.0,-80.0,-37.0,-11.0,2.0,-34.0,103.0,20.0,0.0,0.0,0.0,0.0,0.0,0.0,0.0,0.0,0
-368.0,-118.0,-47.0,-5.0,10.0,-28.0,37.0,14.0,0.0,0.0,0.0,0.0,0.0,0.0,0.0,0.0,0
-345.0,-157.0,-69.0,-11.0,15.0,-27.0,1.0,3.0,0.0,0.0,0.0,0.0,0.0,0.0,0.0,0.0,0
-294.0,-186.0,-91.0,-23.0,13.0,-34.0,-38.0,-6.0,0.0,0.0,0.0,0.0,0.0,0.0,0.0,0.0,0
-218.0,-192.0,-95.0,-24.0,14.0,-29.0,-96.0,-22.0,0.0,0.0,0.0,0.0,0.0,0.0,0.0,0.0,0
-126.0,-177.0,-87.0,-11.0,8.0,-24.0,-152.0,-43.0,0.0,0.0,0.0,0.0,0.0,0.0,0.0,0.0,0
-51.0,-145.0,-67.0,-4.0,6.0,-26.0,-158.0,-52.0,0.0,0.0,0.0,0.0,0.0,0.0,0.0,0.0,0
9.0,-98.0,-47.0,-3.0,8.0,-21.0,-163.0,-68.0,0.0,0.0,0.0,0.0,0.0,0.0,0.0,0.0,0
103.0,-51.0,-33.0,8.0,10.0,-10.0,-180.0,-84.0,0.0,0.0,0.0,0.0,0.0,0.0,0.0,0.0,0
164.0,5.0,-10.0,-3.0,-14.0,-11.0,-160.0,-89.0,0.0,0.0,0.0,0.0,0.0,0.0,0.0,0.0,0
223.0,44.0,9.0,-20.0,-43.0,-24.0,-162.0,-96.0,0.0,0.0,0.0,0.0,0.0,0.0,0.0,0.0,0
264.0,66.0,16.0,-42.0,-65.0,-28.0,-159.0,-106.0,0.0,0.0,0.0,0.0,0.0,0.0,0.0,0.0,0
241.0,79.0,18.0,-64.0,-78.0,-36.0,-99.0,-100.0,0.0,0.0,0.0,0.0,0.0,0.0,0.0,0.0,0
202.0,83.0,12.0,-70.0,-82.0,-37.0,-52.0,-86.0,0.0,0.0,0.0,0.0,0.0,0.0,0.0,0.0,0
181.0,88.0,6.0,-73.0,-92.0,-42.0,-46.0,-76.0,0.0,0.0,0.0,0.0,0.0,0.0,0.0,0.0,0
141.0,80.0,8.0,-72.0,-80.0,-43.0,-35.0,-63.0,0.0,0.0,0.0,0.0,0.0,0.0,0.0,0.0,0
100.0,66.0,5.0,-72.0,-76.0,-41.0,-25.0,-56.0,0.0,0.0,0.0,0.0,0.0,0.0,0.0,0.0,0
64.0,48.0,4.0,-82.0,-79.0,-42.0,-30.0,-53.0,0.0,0.0,0.0,0.0,0.0,0.0,0.0,0.0,0
-6.0,8.0,-15.0,-79.0,-74.0,-47.0,-8.0,-40.0,0.0,0.0,0.0,0.0,0.0,0.0,0.0,0.0,0
-59.0,-38.0,-31.0,-78.0,-54.0,-50.0,-13.0,-25.0,0.0,0.0,0.0,0.0,0.0,0.0,0.0,0.0,0
-85.0,-81.0,-57.0,-71.0,-43.0,-39.0,-4.0,-11.0,0.0,0.0,0.0,0.0,0.0,0.0,0.0,0.0,0
-112.0,-126.0,-72.0,-68.0,-34.0,-35.0,-15.0,-16.0,0.0,0.0,0.0,0.0,0.0,0.0,0.0,0.0,0
-142.0,-145.0,-83.0,-72.0,-30.0,-31.0,8.0,-14.0,0.0,0.0,0.0,0.0,0.0,0.0,0.0,0.0,0
-151.0,-170.0,-93.0,-74.0,-34.0,-34.0,8.0,-8.0,0.0,0.0,0.0,0.0,0.0,0.0,0.0,0.0,0
-136.0,-182.0,-108.0,-92.0,-40.0,-32.0,-40.0,-18.0,0.0,0.0,0.0,0.0,0.0,0.0,0.0,0.0,0
-93.0,-188.0,-120.0,-94.0,-37.0,-35.0,-104.0,-31.0,0.0,0.0,0.0,0.0,0.0,0.0,0.0,0.0,0
-28.0,-149.0,-97.0,-85.0,-45.0,-33.0,-106.0,-39.0,0.0,0.0,0.0,0.0,0.0,0.0,0.0,0.0,0
11.0,-111.0,-71.0,-75.0,-54.0,-35.0,-111.0,-50.0,0.0,0.0,0.0,0.0,0.0,0.0,0.0,0.0,0
56.0,-73.0,-42.0,-48.0,-50.0,-36.0,-117.0,-64.0,0.0,0.0,0.0,0.0,0.0,0.0,0.0,0.0,0
108.0,-20.0,-11.0,-36.0,-40.0,-27.0,-91.0,-60.0,0.0,0.0,0.0,0.0,0.0,0.0,0.0,0.0,0
134.0,34.0,10.0,-30.0,-43.0,-23.0,-74.0,-58.0,0.0,0.0,0.0,0.0,0.0,0.0,0.0,0.0,0
140.0,74.0,35.0,-20.0,-50.0,-29.0,-59.0,-54.0,0.0,0.0,0.0,0.0,0.0,0.0,0.0,0.0,0
108.0,101.0,49.0,-4.0,-55.0,-31.0,12.0,-38.0,0.0,0.0,0.0,0.0,0.0,0.0,0.0,0.0,0
74.0,119.0,50.0,0.0,-54.0,-30.0,40.0,-24.0,0.0,0.0,0.0,0.0,0.0,0.0,0.0,0.0,0
32.0,107.0,49.0,6.0,-58.0,-38.0,18.0,-25.0,0.0,0.0,0.0,0.0,0.0,0.0,0.0,0.0,0
-9.0,82.0,46.0,23.0,-47.0,-38.0,34.0,-22.0,0.0,0.0,0.0,0.0,0.0,0.0,0.0,0.0,0
-18.0,84.0,41.0,36.0,-30.0,-35.0,22.0,-11.0,0.0,0.0,0.0,0.0,0.0,0.0,0.0,0.0,0
-28.0,71.0,26.0,31.0,-26.0,-37.0,1.0,-10.0,0.0,0.0,0.0,0.0,0.0,0.0,0.0,0.0,0
-104.0,15.0,-13.0,21.0,-20.0,-43.0,52.0,3.0,0.0,0.0,0.0,0.0,0.0,0.0,0.0,0.0,0
-163.0,-34.0,-43.0,-1.0,-13.0,-42.0,64.0,12.0,0.0,0.0,0.0,0.0,0.0,0.0,0.0,0.0,0
-203.0,-82.0,-72.0,-11.0,-16.0,-37.0,54.0,25.0,0.0,0.0,0.0,0.0,0.0,0.0,0.0,0.0,0
-231.0,-132.0,-101.0,-22.0,-10.0,-33.0,26.0,19.0,0.0,0.0,0.0,0.0,0.0,0.0,0.0,0.0,0
-263.0,-168.0,-118.0,-52.0,-19.0,-33.0,28.0,16.0,0.0,0.0,0.0,0.0,0.0,0.0,0.0,0.0,0
-283.0,-193.0,-128.0,-68.0,-16.0,-34.0,8.0,11.0,0.0,0.0,0.0,0.0,0.0,0.0,0.0,0.0,0
-233.0,-201.0,-133.0,-69.0,-15.0,-28.0,-53.0,7.0,0.0,0.0,0.0,0.0,0.0,0.0,0.0,0.0,0
-146.0,-182.0,-122.0,-60.0,-8.0,-20.0,-110.0,-3.0,0.0,0.0,0.0,0.0,0.0,0.0,0.0,0.0,0
-84.0,-149.0,-99.0,-39.0,-4.0,-14.0,-105.0,-17.0,0.0,0.0,0.0,0.0,0.0,0.0,0.0,0.0,0
-35.0,-111.0,-72.0,-24.0,9.0,-7.0,-102.0,-30.0,0.0,0.0,0.0,0.0,0.0,0.0,0.0,0.0,0
26.0,-67.0,-52.0,-15.0,9.0,-6.0,-116.0,-40.0,0.0,0.0,0.0,0.0,0.0,0.0,0.0,0.0,0
64.0,-23.0,-33.0,7.0,1.0,-13.0,-91.0,-49.0,0.0,0.0,0.0,0.0,0.0,0.0,0.0,0.0,0
114.0,20.0,-8.0,37.0,-4.0,-18.0,-69.0,-57.0,0.0,0.0,0.0,0.0,0.0,0.0,0.0,0.0,0
136.0,59.0,18.0,49.0,-7.0,-23.0,-71.0,-57.0,0.0,0.0,0.0,0.0,0.0,0.0,0.0,0.0,0
101.0,89.0,37.0,54.0,-18.0,-33.0,-10.0,-51.0,0.0,0.0,0.0,0.0,0.0,0.0,0.0,0.0,0
77.0,101.0,41.0,49.0,-21.0,-41.0,4.0,-48.0,0.0,0.0,0.0,0.0,0.0,0.0,0.0,0.0,0
73.0,97.0,35.0,41.0,-19.0,-49.0,-21.0,-38.0,0.0,0.0,0.0,0.0,0.0,0.0,0.0,0.0,0
42.0,83.0,34.0,20.0,-36.0,-48.0,-14.0,-31.0,0.0,0.0,0.0,0.0,0.0,0.0,0.0,0.0,0
9.0,73.0,34.0,12.0,-45.0,-48.0,-3.0,-26.0,0.0,0.0,0.0,0.0,0.0,0.0,0.0,0.0,0
2.0,53.0,14.0,-17.0,-56.0,-47.0,-5.0,-32.0,0.0,0.0,0.0,0.0,0.0,0.0,0.0,0.0,0
-54.0,16.0,-18.0,-67.0,-71.0,-52.0,30.0,-25.0,0.0,0.0,0.0,0.0,0.0,0.0,0.0,0.0,0
-107.0,-32.0,-69.0,-106.0,-87.0,-61.0,39.0,-26.0,0.0,0.0,0.0,0.0,0.0,0.0,0.0,0.0,0
-134.0,-78.0,-102.0,-128.0,-99.0,-70.0,25.0,-21.0,0.0,0.0,0.0,0.0,0.0,0.0,0.0,0.0,0
-144.0,-114.0,-120.0,-143.0,-93.0,-75.0,-1.0,-20.0,0.0,0.0,0.0,0.0,0.0,0.0,0.0,0.0,0
-171.0,-144.0,-134.0,-137.0,-84.0,-67.0,17.0,-16.0,0.0,0.0,0.0,0.0,0.0,0.0,0.0,0.0,0
-181.0,-170.0,-133.0,-127.0,-75.0,-59.0,9.0,-20.0,0.0,0.0,0.0,0.0,0.0,0.0,0.0,0.0,0
-158.0,-170.0,-124.0,-114.0,-65.0,-53.0,-42.0,-29.0,0.0,0.0,0.0,0.0,0.0,0.0,0.0,0.0,0
-95.0,-158.0,-120.0,-109.0,-55.0,-53.0,-92.0,-40.0,0.0,0.0,0.0,0.0,0.0,0.0,0.0,0.0,0
-52.0,-148.0,-112.0,-99.0,-38.0,-52.0,-100.0,-52.0,0.0,0.0,0.0,0.0,0.0,0.0,0.0,0.0,0
-31.0,-130.0,-97.0,-83.0,-33.0,-43.0,-96.0,-59.0,0.0,0.0,0.0,0.0,0.0,0.0,0.0,0.0,0
1.0,-101.0,-76.0,-57.0,-24.0,-36.0,-113.0,-72.0,0.0,0.0,0.0,0.0,0.0,0.0,0.0,0.0,0
45.0,-47.0,-23.0,-31.0,-15.0,-29.0,-87.0,-72.0,0.0,0.0,0.0,0.0,0.0,0.0,0.0,0.0,0
79.0,4.0,18.0,-12.0,-14.0,-32.0,-67.0,-77.0,0.0,0.0,0.0,0.0,0.0,0.0,0.0,0.0,0
106.0,52.0,48.0,2.0,-14.0,-32.0,-60.0,-75.0,0.0,0.0,0.0,0.0,0.0,0.0,0.0,0.0,0
83.0,79.0,59.0,13.0,-25.0,-30.0,5.0,-67.0,0.0,0.0,0.0,0.0,0.0,0.0,0.0,0.0,0
37.0,79.0,44.0,16.0,-29.0,-27.0,23.0,-54.0,0.0,0.0,0.0,0.0,0.0,0.0,0.0,0.0,0
25.0,75.0,43.0,16.0,-29.0,-21.0,9.0,-50.0,0.0,0.0,0.0,0.0,0.0,0.0,0.0,0.0,0
8.0,83.0,51.0,9.0,-34.0,-28.0,13.0,-39.0,0.0,0.0,0.0,0.0,0.0,0.0,0.0,0.0,0
-12.0,74.0,38.0,-9.0,-39.0,-29.0,-2.0,-28.0,0.0,0.0,0.0,0.0,0.0,0.0,0.0,0.0,0
-24.0,47.0,10.0,-28.0,-45.0,-31.0,-18.0,-23.0,0.0,0.0,0.0,0.0,0.0,0.0,0.0,0.0,0
-56.0,-3.0,-15.0,-45.0,-43.0,-35.0,11.0,-20.0,0.0,0.0,0.0,0.0,0.0,0.0,0.0,0.0,0
-96.0,-38.0,-33.0,-53.0,-41.0,-35.0,23.0,-11.0,0.0,0.0,0.0,0.0,0.0,0.0,0.0,0.0,0
-123.0,-66.0,-50.0,-49.0,-25.0,-33.0,14.0,-8.0,0.0,0.0,0.0,0.0,0.0,0.0,0.0,0.0,0
-145.0,-102.0,-57.0,-34.0,1.0,-33.0,-3.0,-9.0,0.0,0.0,0.0,0.0,0.0,0.0,0.0,0.0,0
-186.0,-132.0,-56.0,-25.0,22.0,-25.0,16.0,-6.0,0.0,0.0,0.0,0.0,0.0,0.0,0.0,0.0,0
-177.0,-135.0,-56.0,-14.0,28.0,-22.0,7.0,-8.0,0.0,0.0,0.0,0.0,0.0,0.0,0.0,0.0,0
-135.0,-139.0,-65.0,-25.0,26.0,-32.0,-39.0,-15.0,0.0,0.0,0.0,0.0,0.0,0.0,0.0,0.0,0
-84.0,-129.0,-64.0,-23.0,16.0,-33.0,-88.0,-30.0,0.0,0.0,0.0,0.0,0.0,0.0,0.0,0.0,0
-45.0,-112.0,-57.0,-20.0,11.0,-34.0,-95.0,-43.0,0.0,0.0,0.0,0.0,0.0,0.0,0.0,0.0,0
5.0,-86.0,-51.0,-13.0,10.0,-41.0,-99.0,-50.0,0.0,0.0,0.0,0.0,0.0,0.0,0.0,0.0,0
62.0,-62.0,-42.0,-6.0,-4.0,-34.0,-114.0,-63.0,0.0,0.0,0.0,0.0,0.0,0.0,0.0,0.0,0
80.0,-38.0,-33.0,-16.0,-26.0,-39.0,-81.0,-75.0,0.0,0.0,0.0,0.0,0.0,0.0,0.0,0.0,0
95.0,-6.0,-17.0,-21.0,-45.0,-33.0,-69.0,-72.0,0.0,0.0,0.0,0.0,0.0,0.0,0.0,0.0,0
112.0,22.0,-2.0,-6.0,-37.0,-28.0,-72.0,-63.0,0.0,0.0,0.0,0.0,0.0,0.0,0.0,0.0,0
83.0,29.0,1.0,-14.0,-38.0,-23.0,-16.0,-51.0,0.0,0.0,0.0,0.0,0.0,0.0,0.0,0.0,0
54.0,44.0,-8.0,-37.0,-64.0,-26.0,2.0,-47.0,0.0,0.0,0.0,0.0,0.0,0.0,0.0,0.0,0
48.0,67.0,-6.0,-38.0,-79.0,-26.0,-17.0,-37.0,0.0,0.0,0.0,0.0,0.0,0.0,0.0,0.0,0
30.0,66.0,-11.0,-48.0,-87.0,-40.0,-6.0,-32.0,0.0,0.0,0.0,0.0,0.0,0.0,0.0,0.0,0
12.0,56.0,-28.0,-47.0,-85.0,-42.0,-17.0,-24.0,0.0,0.0,0.0,0.0,0.0,0.0,0.0,0.0,0
5.0,37.0,-31.0,-49.0,-71.0,-36.0,-29.0,-27.0,0.0,0.0,0.0,0.0,0.0,0.0,0.0,0.0,0
-47.0,14.0,-42.0,-41.0,-66.0,-41.0,13.0,-18.0,0.0,0.0,0.0,0.0,0.0,0.0,0.0,0.0,0
-98.0,-27.0,-56.0,-41.0,-57.0,-50.0,21.0,-13.0,0.0,0.0,0.0,0.0,0.0,0.0,0.0,0.0,0
-107.0,-53.0,-68.0,-43.0,-41.0,-50.0,10.0,-5.0,0.0,0.0,0.0,0.0,0.0,0.0,0.0,0.0,0
-119.0,-85.0,-77.0,-51.0,-30.0,-42.0,-11.0,5.0,0.0,0.0,0.0,0.0,0.0,0.0,0.0,0.0,0
-147.0,-118.0,-103.0,-67.0,-26.0,-46.0,9.0,3.0,0.0,0.0,0.0,0.0,0.0,0.0,0.0,0.0,0
-169.0,-136.0,-122.0,-75.0,-10.0,-56.0,-8.0,-6.0,0.0,0.0,0.0,0.0,0.0,0.0,0.0,0.0,0
-159.0,-147.0,-121.0,-73.0,-2.0,-52.0,-48.0,-11.0,0.0,0.0,0.0,0.0,0.0,0.0,0.0,0.0,0
-129.0,-142.0,-116.0,-64.0,-1.0,-51.0,-84.0,-21.0,0.0,0.0,0.0,0.0,0.0,0.0,0.0,0.0,0
-114.0,-125.0,-101.0,-64.0,-14.0,-46.0,-92.0,-33.0,0.0,0.0,0.0,0.0,0.0,0.0,0.0,0.0,0
-59.0,-89.0,-75.0,-55.0,-10.0,-38.0,-87.0,-45.0,0.0,0.0,0.0,0.0,0.0,0.0,0.0,0.0,0
17.0,-33.0,-50.0,-49.0,-12.0,-35.0,-98.0,-58.0,0.0,0.0,0.0,0.0,0.0,0.0,0.0,0.0,0
48.0,-2.0,-30.0,-26.0,-14.0,-28.0,-77.0,-61.0,0.0,0.0,0.0,0.0,0.0,0.0,0.0,0.0,0
82.0,29.0,16.0,15.0,4.0,-21.0,-66.0,-60.0,0.0,0.0,0.0,0.0,0.0,0.0,0.0,0.0,0
100.0,52.0,23.0,17.0,-4.0,-20.0,-66.0,-61.0,0.0,0.0,0.0,0.0,0.0,0.0,0.0,0.0,0
78.0,67.0,21.0,4.0,-28.0,-19.0,-14.0,-56.0,0.0,0.0,0.0,0.0,0.0,0.0,0.0,0.0,0
45.0,74.0,25.0,-6.0,-42.0,-28.0,10.0,-46.0,0.0,0.0,0.0,0.0,0.0,0.0,0.0,0.0,0
32.0,72.0,21.0,-15.0,-49.0,-32.0,-6.0,-39.0,0.0,0.0,0.0,0.0,0.0,0.0,0.0,0.0,0
7.0,64.0,23.0,-21.0,-60.0,-33.0,-7.0,-38.0,0.0,0.0,0.0,0.0,0.0,0.0,0.0,0.0,0
-23.0,35.0,0.0,-19.0,-66.0,-39.0,-18.0,-31.0,0.0,0.0,0.0,0.0,0.0,0.0,0.0,0.0,0
-36.0,2.0,-30.0,-27.0,-56.0,-42.0,-33.0,-30.0,0.0,0.0,0.0,0.0,0.0,0.0,0.0,0.0,0
-76.0,-22.0,-43.0,-28.0,-46.0,-39.0,3.0,-20.0,0.0,0.0,0.0,0.0,0.0,0.0,0.0,0.0,0
-105.0,-34.0,-43.0,-32.0,-40.0,-42.0,18.0,-8.0,0.0,0.0,0.0,0.0,0.0,0.0,0.0,0.0,0
-119.0,-56.0,-49.0,-34.0,-29.0,-45.0,7.0,0.0,0.0,0.0,0.0,0.0,0.0,0.0,0.0,0.0,0
-129.0,-79.0,-55.0,-38.0,-31.0,-45.0,-15.0,0.0,0.0,0.0,0.0,0.0,0.0,0.0,0.0,0.0,0
-141.0,-101.0,-61.0,-57.0,-39.0,-49.0,3.0,-5.0,0.0,0.0,0.0,0.0,0.0,0.0,0.0,0.0,0
-150.0,-115.0,-62.0,-56.0,-35.0,-58.0,-7.0,-1.0,0.0,0.0,0.0,0.0,0.0,0.0,0.0,0.0,0
-123.0,-117.0,-61.0,-53.0,-37.0,-55.0,-45.0,0.0,0.0,0.0,0.0,0.0,0.0,0.0,0.0,0.0,0
-89.0,-114.0,-71.0,-63.0,-42.0,-57.0,-92.0,-21.0,0.0,0.0,0.0,0.0,0.0,0.0,0.0,0.0,0
-49.0,-112.0,-72.0,-72.0,-54.0,-55.0,-101.0,-26.0,0.0,0.0,0.0,0.0,0.0,0.0,0.0,0.0,0
-11.0,-89.0,-63.0,-65.0,-55.0,-54.0,-98.0,-36.0,0.0,0.0,0.0,0.0,0.0,0.0,0.0,0.0,0
33.0,-67.0,-52.0,-53.0,-53.0,-56.0,-115.0,-54.0,0.0,0.0,0.0,0.0,0.0,0.0,0.0,0.0,0
53.0,-34.0,-20.0,-19.0,-38.0,-48.0,-81.0,-57.0,0.0,0.0,0.0,0.0,0.0,0.0,0.0,0.0,0
54.0,-7.0,7.0,1.0,-34.0,-38.0,-56.0,-60.0,0.0,0.0,0.0,0.0,0.0,0.0,0.0,0.0,0
64.0,12.0,13.0,14.0,-38.0,-30.0,-43.0,-65.0,0.0,0.0,0.0,0.0,0.0,0.0,0.0,0.0,0
56.0,29.0,30.0,18.0,-37.0,-31.0,18.0,-49.0,0.0,0.0,0.0,0.0,0.0,0.0,0.0,0.0,0
21.0,53.0,46.0,25.0,-22.0,-23.0,24.0,-35.0,0.0,0.0,0.0,0.0,0.0,0.0,0.0,0.0,0
11.0,60.0,39.0,28.0,-15.0,-10.0,1.0,-34.0,0.0,0.0,0.0,0.0,0.0,0.0,0.0,0.0,0
13.0,62.0,28.0,17.0,-18.0,3.0,3.0,-23.0,0.0,0.0,0.0,0.0,0.0,0.0,0.0,0.0,0
3.0,48.0,8.0,-10.0,-20.0,-6.0,-5.0,-16.0,0.0,0.0,0.0,0.0,0.0,0.0,0.0,0.0,0
9.0,20.0,-22.0,-37.0,-26.0,-19.0,-28.0,-14.0,0.0,0.0,0.0,0.0,0.0,0.0,0.0,0.0,0
-23.0,-4.0,-35.0,-54.0,-30.0,-29.0,4.0,-14.0,0.0,0.0,0.0,0.0,0.0,0.0,0.0,0.0,0
-72.0,-30.0,-58.0,-66.0,-29.0,-37.0,13.0,-12.0,0.0,0.0,0.0,0.0,0.0,0.0,0.0,0.0,0
-107.0,-52.0,-65.0,-66.0,-22.0,-50.0,17.0,-9.0,0.0,0.0,0.0,0.0,0.0,0.0,0.0,0.0,0
-120.0,-62.0,-66.0,-61.0,-22.0,-53.0,-6.0,-7.0,0.0,0.0,0.0,0.0,0.0,0.0,0.0,0.0,0
-122.0,-72.0,-74.0,-58.0,-27.0,-49.0,6.0,-3.0,0.0,0.0,0.0,0.0,0.0,0.0,0.0,0.0,0
-128.0,-90.0,-79.0,-66.0,-31.0,-47.0,-12.0,-3.0,0.0,0.0,0.0,0.0,0.0,0.0,0.0,0.0,0
-125.0,-118.0,-80.0,-73.0,-34.0,-44.0,-55.0,-10.0,0.0,0.0,0.0,0.0,0.0,0.0,0.0,0.0,0
-83.0,-127.0,-81.0,-77.0,-47.0,-44.0,-85.0,-30.0,0.0,0.0,0.0,0.0,0.0,0.0,0.0,0.0,0
-43.0,-119.0,-85.0,-88.0,-54.0,-46.0,-76.0,-46.0,0.0,0.0,0.0,0.0,0.0,0.0,0.0,0.0,0
-12.0,-115.0,-86.0,-90.0,-65.0,-44.0,-75.0,-51.0,0.0,0.0,0.0,0.0,0.0,0.0,0.0,0.0,0
-1.0,-117.0,-91.0,-95.0,-71.0,-34.0,-79.0,-67.0,0.0,0.0,0.0,0.0,0.0,0.0,0.0,0.0,0
4.0,-88.0,-75.0,-91.0,-75.0,-35.0,-57.0,-55.0,0.0,0.0,0.0,0.0,0.0,0.0,0.0,0.0,0
39.0,-31.0,-46.0,-57.0,-73.0,-32.0,-53.0,-59.0,0.0,0.0,0.0,0.0,0.0,0.0,0.0,0.0,0
66.0,11.0,-27.0,-44.0,-72.0,-30.0,-62.0,-58.0,0.0,0.0,0.0,0.0,0.0,0.0,0.0,0.0,0
48.0,32.0,-7.0,-36.0,-80.0,-34.0,-13.0,-49.0,0.0,0.0,0.0,0.0,0.0,0.0,0.0,0.0,0
21.0,53.0,7.0,-22.0,-72.0,-31.0,22.0,-48.0,0.0,0.0,0.0,0.0,0.0,0.0,0.0,0.0,0
28.0,74.0,31.0,4.0,-62.0,-26.0,2.0,-43.0,0.0,0.0,0.0,0.0,0.0,0.0,0.0,0.0,0
4.0,72.0,51.0,22.0,-52.0,-22.0,-2.0,-34.0,0.0,0.0,0.0,0.0,0.0,0.0,0.0,0.0,0
-20.0,50.0,39.0,23.0,-39.0,-23.0,-8.0,-31.0,0.0,0.0,0.0,0.0,0.0,0.0,0.0,0.0,0
-18.0,33.0,28.0,33.0,-28.0,-21.0,-24.0,-31.0,0.0,0.0,0.0,0.0,0.0,0.0,0.0,0.0,0
-51.0,17.0,15.0,23.0,-12.0,-22.0,5.0,-20.0,0.0,0.0,0.0,0.0,0.0,0.0,0.0,0.0,0
-86.0,-3.0,2.0,8.0,-3.0,-25.0,12.0,-10.0,0.0,0.0,0.0,0.0,0.0,0.0,0.0,0.0,0
-117.0,-30.0,-19.0,-7.0,-7.0,-38.0,5.0,-7.0,0.0,0.0,0.0,0.0,0.0,0.0,0.0,0.0,0
-114.0,-47.0,-48.0,-24.0,-17.0,-51.0,-8.0,-7.0,0.0,0.0,0.0,0.0,0.0,0.0,0.0,0.0,0
-128.0,-66.0,-66.0,-45.0,-30.0,-57.0,3.0,-5.0,0.0,0.0,0.0,0.0,0.0,0.0,0.0,0.0,0
-148.0,-99.0,-85.0,-64.0,-48.0,-58.0,-9.0,0.0,0.0,0.0,0.0,0.0,0.0,0.0,0.0,0.0,0
-135.0,-115.0,-105.0,-85.0,-61.0,-64.0,-48.0,-13.0,0.0,0.0,0.0,0.0,0.0,0.0,0.0,0.0,0
-86.0,-119.0,-113.0,-87.0,-60.0,-59.0,-97.0,-23.0,0.0,0.0,0.0,0.0,0.0,0.0,0.0,0.0,0
-41.0,-107.0,-100.0,-70.0,-50.0,-60.0,-101.0,-34.0,0.0,0.0,0.0,0.0,0.0,0.0,0.0,0.0,0
-4.0,-84.0,-72.0,-51.0,-33.0,-53.0,-109.0,-49.0,0.0,0.0,0.0,0.0,0.0,0.0,0.0,0.0,0
34.0,-50.0,-53.0,-34.0,-32.0,-41.0,-117.0,-50.0,0.0,0.0,0.0,0.0,0.0,0.0,0.0,0.0,0
39.0,-25.0,-33.0,-31.0,-40.0,-48.0,-79.0,-52.0,0.0,0.0,0.0,0.0,0.0,0.0,0.0,0.0,0
47.0,12.0,-2.0,-13.0,-50.0,-48.0,-71.0,-57.0,0.0,0.0,0.0,0.0,0.0,0.0,0.0,0.0,0
60.0,28.0,14.0,6.0,-42.0,-30.0,-80.0,-56.0,0.0,0.0,0.0,0.0,0.0,0.0,0.0,0.0,0
51.0,53.0,30.0,11.0,-47.0,-27.0,-13.0,-50.0,0.0,0.0,0.0,0.0,0.0,0.0,0.0,0.0,0
35.0,76.0,44.0,12.0,-52.0,-21.0,10.0,-42.0,0.0,0.0,0.0,0.0,0.0,0.0,0.0,0.0,0
31.0,76.0,48.0,25.0,-42.0,-16.0,-12.0,-37.0,0.0,0.0,0.0,0.0,0.0,0.0,0.0,0.0,0
17.0,47.0,47.0,29.0,-29.0,-21.0,-11.0,-39.0,0.0,0.0,0.0,0.0,0.0,0.0,0.0,0.0,0
-9.0,8.0,24.0,22.0,-24.0,-27.0,-26.0,-36.0,0.0,0.0,0.0,0.0,0.0,0.0,0.0,0.0,0
-35.0,-27.0,11.0,15.0,-7.0,-24.0,-29.0,-29.0,0.0,0.0,0.0,0.0,0.0,0.0,0.0,0.0,0
-75.0,-74.0,-22.0,-5.0,-3.0,-27.0,17.0,-23.0,0.0,0.0,0.0,0.0,0.0,0.0,0.0,0.0,0
-109.0,-84.0,-51.0,-34.0,-10.0,-38.0,28.0,-18.0,0.0,0.0,0.0,0.0,0.0,0.0,0.0,0.0,0
-124.0,-85.0,-59.0,-52.0,-15.0,-38.0,9.0,-14.0,0.0,0.0,0.0,0.0,0.0,0.0,0.0,0.0,0
-121.0,-106.0,-69.0,-55.0,-17.0,-51.0,-17.0,-15.0,0.0,0.0,0.0,0.0,0.0,0.0,0.0,0.0,0
-118.0,-107.0,-65.0,-54.0,-20.0,-55.0,10.0,-9.0,0.0,0.0,0.0,0.0,0.0,0.0,0.0,0.0,0
-133.0,-103.0,-63.0,-51.0,-18.0,-48.0,13.0,-4.0,0.0,0.0,0.0,0.0,0.0,0.0,0.0,0.0,0
-132.0,-111.0,-69.0,-48.0,-22.0,-45.0,-34.0,-9.0,0.0,0.0,0.0,0.0,0.0,0.0,0.0,0.0,0
-81.0,-102.0,-66.0,-27.0,-8.0,-48.0,-85.0,-31.0,0.0,0.0,0.0,0.0,0.0,0.0,0.0,0.0,0
-48.0,-82.0,-58.0,-18.0,-9.0,-41.0,-90.0,-38.0,0.0,0.0,0.0,0.0,0.0,0.0,0.0,0.0,0
-32.0,-60.0,-52.0,-25.0,-20.0,-39.0,-84.0,-53.0,0.0,0.0,0.0,0.0,0.0,0.0,0.0,0.0,0
24.0,-26.0,-35.0,-29.0,-32.0,-36.0,-94.0,-53.0,0.0,0.0,0.0,0.0,0.0,0.0,0.0,0.0,0
47.0,-2.0,-10.0,-24.0,-47.0,-35.0,-57.0,-49.0,0.0,0.0,0.0,0.0,0.0,0.0,0.0,0.0,0
47.0,9.0,5.0,-32.0,-57.0,-40.0,-49.0,-60.0,0.0,0.0,0.0,0.0,0.0,0.0,0.0,0.0,0
55.0,19.0,7.0,-44.0,-68.0,-46.0,-57.0,-62.0,0.0,0.0,0.0,0.0,0.0,0.0,0.0,0.0,0
36.0,22.0,-4.0,-57.0,-71.0,-43.0,-6.0,-59.0,0.0,0.0,0.0,0.0,0.0,0.0,0.0,0.0,0
-1.0,14.0,-19.0,-65.0,-75.0,-46.0,-3.0,-49.0,0.0,0.0,0.0,0.0,0.0,0.0,0.0,0.0,0
-8.0,14.0,-22.0,-69.0,-82.0,-50.0,-30.0,-51.0,0.0,0.0,0.0,0.0,0.0,0.0,0.0,0.0,0
-1.0,13.0,-25.0,-68.0,-78.0,-45.0,-30.0,-49.0,0.0,0.0,0.0,0.0,0.0,0.0,0.0,0.0,0
-9.0,3.0,-28.0,-66.0,-70.0,-40.0,-36.0,-51.0,0.0,0.0,0.0,0.0,0.0,0.0,0.0,0.0,0
-9.0,-4.0,-34.0,-64.0,-67.0,-37.0,-49.0,-45.0,0.0,0.0,0.0,0.0,0.0,0.0,0.0,0.0,0
-45.0,-27.0,-35.0,-51.0,-60.0,-35.0,-16.0,-37.0,0.0,0.0,0.0,0.0,0.0,0.0,0.0,0.0,0
-79.0,-36.0,-38.0,-49.0,-53.0,-33.0,0.0,-30.0,0.0,0.0,0.0,0.0,0.0,0.0,0.0,0.0,0
-93.0,-57.0,-51.0,-55.0,-45.0,-33.0,-6.0,-24.0,0.0,0.0,0.0,0.0,0.0,0.0,0.0,0.0,0
-105.0,-84.0,-76.0,-67.0,-38.0,-31.0,-16.0,-22.0,0.0,0.0,0.0,0.0,0.0,0.0,0.0,0.0,0
-136.0,-103.0,-103.0,-82.0,-35.0,-28.0,8.0,-13.0,0.0,0.0,0.0,0.0,0.0,0.0,0.0,0.0,0
-145.0,-108.0,-101.0,-78.0,-28.0,-26.0,-5.0,-20.0,0.0,0.0,0.0,0.0,0.0,0.0,0.0,0.0,0
-126.0,-114.0,-94.0,-68.0,-34.0,-22.0,-49.0,-33.0,0.0,0.0,0.0,0.0,0.0,0.0,0.0,0.0,0
-73.0,-104.0,-78.0,-52.0,-25.0,-16.0,-89.0,-37.0,0.0,0.0,0.0,0.0,0.0,0.0,0.0,0.0,0
-28.0,-84.0,-65.0,-30.0,-14.0,-13.0,-88.0,-48.0,0.0,0.0,0.0,0.0,0.0,0.0,0.0,0.0,0
0.0,-64.0,-54.0,-23.0,-14.0,-13.0,-90.0,-52.0,0.0,0.0,0.0,0.0,0.0,0.0,0.0,0.0,0
16.0,-47.0,-52.0,-25.0,-21.0,-12.0,-104.0,-64.0,0.0,0.0,0.0,0.0,0.0,0.0,0.0,0.0,0
17.0,-36.0,-41.0,-12.0,-21.0,-18.0,-75.0,-69.0,0.0,0.0,0.0,0.0,0.0,0.0,0.0,0.0,0
38.0,-13.0,-22.0,2.0,-25.0,-10.0,-64.0,-74.0,0.0,0.0,0.0,0.0,0.0,0.0,0.0,0.0,0
65.0,13.0,-11.0,17.0,-20.0,-8.0,-64.0,-73.0,0.0,0.0,0.0,0.0,0.0,0.0,0.0,0.0,0
44.0,34.0,7.0,25.0,-14.0,-7.0,-2.0,-62.0,0.0,0.0,0.0,0.0,0.0,0.0,0.0,0.0,0
6.0,37.0,22.0,33.0,-1.0,-3.0,21.0,-50.0,0.0,0.0,0.0,0.0,0.0,0.0,0.0,0.0,0
5.0,34.0,34.0,29.0,6.0,1.0,-5.0,-45.0,0.0,0.0,0.0,0.0,0.0,0.0,0.0,0.0,0
-5.0,30.0,31.0,18.0,9.0,-1.0,-18.0,-43.0,0.0,0.0,0.0,0.0,0.0,0.0,0.0,0.0,0
2.0,31.0,19.0,9.0,-2.0,-3.0,-30.0,-36.0,0.0,0.0,0.0,0.0,0.0,0.0,0.0,0.0,0
10.0,21.0,14.0,-4.0,-13.0,-12.0,-43.0,-34.0,0.0,0.0,0.0,0.0,0.0,0.0,0.0,0.0,0
-23.0,-8.0,-8.0,-26.0,-23.0,-23.0,-4.0,-22.0,0.0,0.0,0.0,0.0,0.0,0.0,0.0,0.0,0
-55.0,-36.0,-27.0,-33.0,-30.0,-25.0,8.0,-9.0,0.0,0.0,0.0,0.0,0.0,0.0,0.0,0.0,0
-72.0,-56.0,-36.0,-40.0,-29.0,-26.0,-4.0,-7.0,0.0,0.0,0.0,0.0,0.0,0.0,0.0,0.0,0
-87.0,-83.0,-49.0,-40.0,-39.0,-39.0,-28.0,-11.0,0.0,0.0,0.0,0.0,0.0,0.0,0.0,0.0,0
-110.0,-93.0,-57.0,-44.0,-40.0,-39.0,-12.0,-7.0,0.0,0.0,0.0,0.0,0.0,0.0,0.0,0.0,0
-117.0,-86.0,-68.0,-47.0,-27.0,-37.0,-13.0,-8.0,0.0,0.0,0.0,0.0,0.0,0.0,0.0,0.0,0
-86.0,-92.0,-78.0,-58.0,-27.0,-37.0,-47.0,-18.0,0.0,0.0,0.0,0.0,0.0,0.0,0.0,0.0,0
-41.0,-95.0,-78.0,-62.0,-31.0,-43.0,-87.0,-27.0,0.0,0.0,0.0,0.0,0.0,0.0,0.0,0.0,0
-11.0,-73.0,-66.0,-56.0,-32.0,-32.0,-90.0,-36.0,0.0,0.0,0.0,0.0,0.0,0.0,0.0,0.0,0
12.0,-46.0,-53.0,-53.0,-36.0,-40.0,-93.0,-39.0,0.0,0.0,0.0,0.0,0.0,0.0,0.0,0.0,0
32.0,-44.0,-49.0,-58.0,-29.0,-34.0,-107.0,-52.0,0.0,0.0,0.0,0.0,0.0,0.0,0.0,0.0,0
26.0,-38.0,-53.0,-70.0,-29.0,-28.0,-65.0,-49.0,0.0,0.0,0.0,0.0,0.0,0.0,0.0,0.0,0
24.0,-20.0,-58.0,-77.0,-36.0,-30.0,-48.0,-49.0,0.0,0.0,0.0,0.0,0.0,0.0,0.0,0.0,0
40.0,-8.0,-45.0,-65.0,-42.0,-38.0,-57.0,-55.0,0.0,0.0,0.0,0.0,0.0,0.0,0.0,0.0,0
3.0,0.0,-16.0,-43.0,-28.0,-40.0,-10.0,-46.0,0.0,0.0,0.0,0.0,0.0,0.0,0.0,0.0,0
-32.0,12.0,1.0,-33.0,-24.0,-32.0,21.0,-47.0,0.0,0.0,0.0,0.0,0.0,0.0,0.0,0.0,0
-39.0,18.0,1.0,-33.0,-36.0,-33.0,-3.0,-49.0,0.0,0.0,0.0,0.0,0.0,0.0,0.0,0.0,0
-61.0,3.0,-1.0,-43.0,-44.0,-45.0,-24.0,-48.0,0.0,0.0,0.0,0.0,0.0,0.0,0.0,0.0,0
-50.0,-7.0,-6.0,-45.0,-56.0,-50.0,-38.0,-46.0,0.0,0.0,0.0,0.0,0.0,0.0,0.0,0.0,0
-25.0,5.0,-12.0,-51.0,-53.0,-51.0,-54.0,-38.0,0.0,0.0,0.0,0.0,0.0,0.0,0.0,0.0,0
-34.0,-6.0,-5.0,-50.0,-52.0,-47.0,-25.0,-34.0,0.0,0.0,0.0,0.0,0.0,0.0,0.0,0.0,0
-82.0,-29.0,-15.0,-51.0,-55.0,-46.0,-12.0,-21.0,0.0,0.0,0.0,0.0,0.0,0.0,0.0,0.0,0
-104.0,-41.0,-24.0,-62.0,-56.0,-50.0,-10.0,-20.0,0.0,0.0,0.0,0.0,0.0,0.0,0.0,0.0,0
-115.0,-63.0,-33.0,-54.0,-54.0,-56.0,-28.0,-17.0,0.0,0.0,0.0,0.0,0.0,0.0,0.0,0.0,0
-127.0,-67.0,-53.0,-54.0,-48.0,-54.0,-6.0,-8.0,0.0,0.0,0.0,0.0,0.0,0.0,0.0,0.0,0
-118.0,-74.0,-61.0,-56.0,-42.0,-48.0,-13.0,-10.0,0.0,0.0,0.0,0.0,0.0,0.0,0.0,0.0,0
-98.0,-78.0,-57.0,-46.0,-33.0,-38.0,-58.0,-15.0,0.0,0.0,0.0,0.0,0.0,0.0,0.0,0.0,0
-49.0,-71.0,-63.0,-46.0,-27.0,-38.0,-91.0,-21.0,0.0,0.0,0.0,0.0,0.0,0.0,0.0,0.0,0
-16.0,-61.0,-65.0,-49.0,-20.0,-34.0,-80.0,-32.0,0.0,0.0,0.0,0.0,0.0,0.0,0.0,0.0,0
-4.0,-58.0,-60.0,-52.0,-30.0,-35.0,-78.0,-38.0,0.0,0.0,0.0,0.0,0.0,0.0,0.0,0.0,0
5.0,-57.0,-48.0,-55.0,-30.0,-35.0,-80.0,-51.0,0.0,0.0,0.0,0.0,0.0,0.0,0.0,0.0,0
-2.0,-48.0,-40.0,-54.0,-37.0,-35.0,-49.0,-54.0,0.0,0.0,0.0,0.0,0.0,0.0,0.0,0.0,0
18.0,-17.0,-23.0,-39.0,-63.0,-44.0,-47.0,-56.0,0.0,0.0,0.0,0.0,0.0,0.0,0.0,0.0,0
51.0,12.0,-2.0,-23.0,-55.0,-41.0,-63.0,-55.0,0.0,0.0,0.0,0.0,0.0,0.0,0.0,0.0,0
12.0,24.0,1.0,-4.0,-48.0,-42.0,-3.0,-52.0,0.0,0.0,0.0,0.0,0.0,0.0,0.0,0.0,0
-35.0,29.0,6.0,3.0,-40.0,-41.0,20.0,-52.0,0.0,0.0,0.0,0.0,0.0,0.0,0.0,0.0,0
-33.0,23.0,16.0,5.0,-33.0,-46.0,-18.0,-52.0,0.0,0.0,0.0,0.0,0.0,0.0,0.0,0.0,0
-23.0,18.0,20.0,10.0,-31.0,-46.0,-23.0,-55.0,0.0,0.0,0.0,0.0,0.0,0.0,0.0,0.0,0
-15.0,14.0,16.0,9.0,-29.0,-39.0,-39.0,-46.0,0.0,0.0,0.0,0.0,0.0,0.0,0.0,0.0,0
-17.0,-7.0,4.0,4.0,-17.0,-26.0,-48.0,-42.0,0.0,0.0,0.0,0.0,0.0,0.0,0.0,0.0,0
-46.0,-48.0,-4.0,5.0,3.0,-20.0,-12.0,-38.0,0.0,0.0,0.0,0.0,0.0,0.0,0.0,0.0,0
-63.0,-63.0,-27.0,6.0,7.0,-16.0,1.0,-28.0,0.0,0.0,0.0,0.0,0.0,0.0,0.0,0.0,0
-73.0,-49.0,-37.0,-7.0,-1.0,-17.0,-1.0,-21.0,0.0,0.0,0.0,0.0,0.0,0.0,0.0,0.0,0
-73.0,-45.0,-34.0,-9.0,-16.0,-26.0,-26.0,-20.0,0.0,0.0,0.0,0.0,0.0,0.0,0.0,0.0,0
-87.0,-45.0,-37.0,-10.0,-4.0,-15.0,-8.0,-16.0,0.0,0.0,0.0,0.0,0.0,0.0,0.0,0.0,0
-93.0,-56.0,-46.0,0.0,3.0,-16.0,-11.0,-4.0,0.0,0.0,0.0,0.0,0.0,0.0,0.0,0.0,0
-77.0,-66.0,-53.0,2.0,1.0,-21.0,-46.0,-11.0,0.0,0.0,0.0,0.0,0.0,0.0,0.0,0.0,0
-44.0,-51.0,-47.0,0.0,8.0,-16.0,-78.0,-17.0,0.0,0.0,0.0,0.0,0.0,0.0,0.0,0.0,0
-25.0,-51.0,-41.0,3.0,7.0,-11.0,-78.0,-26.0,0.0,0.0,0.0,0.0,0.0,0.0,0.0,0.0,0
-2.0,-44.0,-42.0,0.0,-6.0,-10.0,-85.0,-30.0,0.0,0.0,0.0,0.0,0.0,0.0,0.0,0.0,0
32.0,-18.0,-28.0,-10.0,-17.0,-15.0,-95.0,-43.0,0.0,0.0,0.0,0.0,0.0,0.0,0.0,0.0,0
32.0,-6.0,-31.0,-22.0,-30.0,-25.0,-61.0,-49.0,0.0,0.0,0.0,0.0,0.0,0.0,0.0,0.0,0
27.0,1.0,-40.0,-58.0,-46.0,-28.0,-60.0,-52.0,0.0,0.0,0.0,0.0,0.0,0.0,0.0,0.0,0
38.0,4.0,-51.0,-75.0,-55.0,-35.0,-72.0,-68.0,0.0,0.0,0.0,0.0,0.0,0.0,0.0,0.0,0
8.0,-1.0,-49.0,-71.0,-55.0,-35.0,-17.0,-64.0,0.0,0.0,0.0,0.0,0.0,0.0,0.0,0.0,0
-17.0,-8.0,-51.0,-72.0,-49.0,-43.0,9.0,-49.0,0.0,0.0,0.0,0.0,0.0,0.0,0.0,0.0,0
-24.0,-10.0,-45.0,-77.0,-51.0,-46.0,-22.0,-53.0,0.0,0.0,0.0,0.0,0.0,0.0,0.0,0.0,0
-37.0,-14.0,-31.0,-73.0,-64.0,-43.0,-30.0,-45.0,0.0,0.0,0.0,0.0,0.0,0.0,0.0,0.0,0
-37.0,-14.0,-26.0,-59.0,-50.0,-41.0,-34.0,-42.0,0.0,0.0,0.0,0.0,0.0,0.0,0.0,0.0,0
-21.0,-15.0,-21.0,-47.0,-39.0,-40.0,-51.0,-38.0,0.0,0.0,0.0,0.0,0.0,0.0,0.0,0.0,0
-39.0,-15.0,-24.0,-32.0,-41.0,-37.0,-30.0,-27.0,0.0,0.0,0.0,0.0,0.0,0.0,0.0,0.0,0
-61.0,-27.0,-21.0,-32.0,-46.0,-41.0,-19.0,-20.0,0.0,0.0,0.0,0.0,0.0,0.0,0.0,0.0,0
-78.0,-46.0,-37.0,-50.0,-57.0,-53.0,-16.0,-19.0,0.0,0.0,0.0,0.0,0.0,0.0,0.0,0.0,0
-75.0,-59.0,-49.0,-56.0,-64.0,-59.0,-28.0,-18.0,0.0,0.0,0.0,0.0,0.0,0.0,0.0,0.0,0
-101.0,-74.0,-65.0,-69.0,-73.0,-61.0,-5.0,-10.0,0.0,0.0,0.0,0.0,0.0,0.0,0.0,0.0,0
-117.0,-79.0,-73.0,-77.0,-66.0,-58.0,-7.0,11.0,0.0,0.0,0.0,0.0,0.0,0.0,0.0,0.0,0
-107.0,-61.0,-56.0,-55.0,-52.0,-47.0,-27.0,4.0,0.0,0.0,0.0,0.0,0.0,0.0,0.0,0.0,0
-79.0,-65.0,-57.0,-40.0,-37.0,-38.0,-57.0,-10.0,0.0,0.0,0.0,0.0,0.0,0.0,0.0,0.0,0
-58.0,-80.0,-74.0,-50.0,-34.0,-33.0,-61.0,-20.0,0.0,0.0,0.0,0.0,0.0,0.0,0.0,0.0,0
-31.0,-71.0,-67.0,-50.0,-35.0,-34.0,-73.0,-29.0,0.0,0.0,0.0,0.0,0.0,0.0,0.0,0.0,0
3.0,-59.0,-57.0,-40.0,-28.0,-31.0,-84.0,-42.0,0.0,0.0,0.0,0.0,0.0,0.0,0.0,0.0,0
11.0,-39.0,-35.0,-32.0,-19.0,-22.0,-45.0,-44.0,0.0,0.0,0.0,0.0,0.0,0.0,0.0,0.0,0
-2.0,-19.0,-23.0,-22.0,-16.0,-21.0,-25.0,-46.0,0.0,0.0,0.0,0.0,0.0,0.0,0.0,0.0,0
1.0,-11.0,-16.0,-14.0,-12.0,-16.0,-41.0,-60.0,0.0,0.0,0.0,0.0,0.0,0.0,0.0,0.0,0
1.0,3.0,2.0,1.0,-10.0,-17.0,8.0,-56.0,0.0,0.0,0.0,0.0,0.0,0.0,0.0,0.0,0
-23.0,14.0,11.0,6.0,-14.0,-11.0,27.0,-45.0,0.0,0.0,0.0,0.0,0.0,0.0,0.0,0.0,0
-23.0,19.0,4.0,-1.0,-19.0,-17.0,-3.0,-45.0,0.0,0.0,0.0,0.0,0.0,0.0,0.0,0.0,0
-22.0,14.0,-6.0,-8.0,-26.0,-26.0,-18.0,-47.0,0.0,0.0,0.0,0.0,0.0,0.0,0.0,0.0,0
-20.0,5.0,-23.0,-16.0,-30.0,-33.0,-30.0,-46.0,0.0,0.0,0.0,0.0,0.0,0.0,0.0,0.0,0
-6.0,-2.0,-28.0,-19.0,-33.0,-32.0,-49.0,-44.0,0.0,0.0,0.0,0.0,0.0,0.0,0.0,0.0,0
-25.0,-17.0,-30.0,-28.0,-42.0,-38.0,-27.0,-37.0,0.0,0.0,0.0,0.0,0.0,0.0,0.0,0.0,0
-49.0,-38.0,-36.0,-21.0,-46.0,-42.0,-13.0,-26.0,0.0,0.0,0.0,0.0,0.0,0.0,0.0,0.0,0
-68.0,-52.0,-36.0,-27.0,-42.0,-45.0,-10.0,-18.0,0.0,0.0,0.0,0.0,0.0,0.0,0.0,0.0,0
-92.0,-65.0,-41.0,-30.0,-37.0,-42.0,-25.0,-11.0,0.0,0.0,0.0,0.0,0.0,0.0,0.0,0.0,0
-106.0,-77.0,-37.0,-25.0,-33.0,-43.0,-5.0,-10.0,0.0,0.0,0.0,0.0,0.0,0.0,0.0,0.0,0
-107.0,-78.0,-39.0,-28.0,-38.0,-46.0,-10.0,-7.0,0.0,0.0,0.0,0.0,0.0,0.0,0.0,0.0,0
-89.0,-73.0,-40.0,-34.0,-43.0,-39.0,-39.0,-14.0,0.0,0.0,0.0,0.0,0.0,0.0,0.0,0.0,0
-57.0,-77.0,-46.0,-45.0,-45.0,-37.0,-73.0,-25.0,0.0,0.0,0.0,0.0,0.0,0.0,0.0,0.0,0
-41.0,-74.0,-49.0,-50.0,-50.0,-43.0,-65.0,-31.0,0.0,0.0,0.0,0.0,0.0,0.0,0.0,0.0,0
-22.0,-54.0,-48.0,-55.0,-40.0,-41.0,-59.0,-32.0,0.0,0.0,0.0,0.0,0.0,0.0,0.0,0.0,0
-8.0,-39.0,-38.0,-49.0,-28.0,-33.0,-74.0,-49.0,0.0,0.0,0.0,0.0,0.0,0.0,0.0,0.0,0
-14.0,-31.0,-37.0,-50.0,-25.0,-22.0,-45.0,-54.0,0.0,0.0,0.0,0.0,0.0,0.0,0.0,0.0,0
-6.0,-11.0,-33.0,-64.0,-28.0,-22.0,-24.0,-65.0,0.0,0.0,0.0,0.0,0.0,0.0,0.0,0.0,0
7.0,-7.0,-33.0,-70.0,-34.0,-25.0,-39.0,-77.0,0.0,0.0,0.0,0.0,0.0,0.0,0.0,0.0,0
-8.0,-6.0,-29.0,-71.0,-34.0,-30.0,6.0,-63.0,0.0,0.0,0.0,0.0,0.0,0.0,0.0,0.0,0
-46.0,0.0,-21.0,-71.0,-32.0,-39.0,27.0,-57.0,0.0,0.0,0.0,0.0,0.0,0.0,0.0,0.0,0
-46.0,5.0,-10.0,-71.0,-32.0,-37.0,1.0,-54.0,0.0,0.0,0.0,0.0,0.0,0.0,0.0,0.0,0
-43.0,4.0,-6.0,-66.0,-39.0,-37.0,-18.0,-51.0,0.0,0.0,0.0,0.0,0.0,0.0,0.0,0.0,0
-45.0,3.0,-9.0,-61.0,-41.0,-40.0,-38.0,-46.0,0.0,0.0,0.0,0.0,0.0,0.0,0.0,0.0,0
-36.0,-14.0,-8.0,-54.0,-30.0,-37.0,-63.0,-51.0,0.0,0.0,0.0,0.0,0.0,0.0,0.0,0.0,0
-44.0,-23.0,-12.0,-43.0,-31.0,-35.0,-28.0,-42.0,0.0,0.0,0.0,0.0,0.0,0.0,0.0,0.0,0
-51.0,-22.0,-14.0,-37.0,-26.0,-39.0,-15.0,-27.0,0.0,0.0,0.0,0.0,0.0,0.0,0.0,0.0,0
-62.0,-26.0,-17.0,-32.0,-32.0,-43.0,-19.0,-13.0,0.0,0.0,0.0,0.0,0.0,0.0,0.0,0.0,0
-72.0,-53.0,-30.0,-30.0,-34.0,-36.0,-17.0,-8.0,0.0,0.0,0.0,0.0,0.0,0.0,0.0,0.0,0
-94.0,-61.0,-38.0,-29.0,-30.0,-45.0,2.0,3.0,0.0,0.0,0.0,0.0,0.0,0.0,0.0,0.0,0
-97.0,-49.0,-34.0,-6.0,-20.0,-36.0,5.0,7.0,0.0,0.0,0.0,0.0,0.0,0.0,0.0,0.0,0
-85.0,-54.0,-25.0,9.0,-7.0,-33.0,-25.0,-4.0,0.0,0.0,0.0,0.0,0.0,0.0,0.0,0.0,0
-42.0,-51.0,-21.0,24.0,-6.0,-34.0,-62.0,-21.0,0.0,0.0,0.0,0.0,0.0,0.0,0.0,0.0,0
-18.0,-42.0,-31.0,29.0,0.0,-36.0,-57.0,-22.0,0.0,0.0,0.0,0.0,0.0,0.0,0.0,0.0,0
-20.0,-45.0,-29.0,31.0,10.0,-34.0,-55.0,-35.0,0.0,0.0,0.0,0.0,0.0,0.0,0.0,0.0,0
5.0,-46.0,-16.0,41.0,7.0,-28.0,-70.0,-46.0,0.0,0.0,0.0,0.0,0.0,0.0,0.0,0.0,0
25.0,-27.0,2.0,47.0,11.0,-21.0,-42.0,-39.0,0.0,0.0,0.0,0.0,0.0,0.0,0.0,0.0,0
22.0,-12.0,4.0,42.0,6.0,-19.0,-23.0,-49.0,0.0,0.0,0.0,0.0,0.0,0.0,0.0,0.0,0
19.0,-6.0,8.0,28.0,-4.0,-15.0,-39.0,-64.0,0.0,0.0,0.0,0.0,0.0,0.0,0.0,0.0,0
-2.0,-9.0,17.0,8.0,-9.0,-15.0,14.0,-60.0,0.0,0.0,0.0,0.0,0.0,0.0,0.0,0.0,0
-25.0,-6.0,5.0,-10.0,-19.0,-18.0,39.0,-56.0,0.0,0.0,0.0,0.0,0.0,0.0,0.0,0.0,0
-27.0,-11.0,-7.0,-30.0,-26.0,-20.0,1.0,-56.0,0.0,0.0,0.0,0.0,0.0,0.0,0.0,0.0,0
-22.0,-12.0,-14.0,-47.0,-43.0,-27.0,-21.0,-60.0,0.0,0.0,0.0,0.0,0.0,0.0,0.0,0.0,0
-7.0,-11.0,-24.0,-53.0,-56.0,-32.0,-45.0,-55.0,0.0,0.0,0.0,0.0,0.0,0.0,0.0,0.0,0
5.0,-23.0,-32.0,-70.0,-58.0,-40.0,-61.0,-44.0,0.0,0.0,0.0,0.0,0.0,0.0,0.0,0.0,0
-24.0,-36.0,-50.0,-86.0,-65.0,-42.0,-28.0,-34.0,0.0,0.0,0.0,0.0,0.0,0.0,0.0,0.0,0
-44.0,-58.0,-57.0,-77.0,-67.0,-55.0,-20.0,-34.0,0.0,0.0,0.0,0.0,0.0,0.0,0.0,0.0,0
-57.0,-72.0,-58.0,-68.0,-72.0,-64.0,-16.0,-24.0,0.0,0.0,0.0,0.0,0.0,0.0,0.0,0.0,0
-72.0,-85.0,-68.0,-73.0,-71.0,-55.0,-27.0,-11.0,0.0,0.0,0.0,0.0,0.0,0.0,0.0,0.0,0
-91.0,-86.0,-68.0,-70.0,-61.0,-51.0,4.0,-4.0,0.0,0.0,0.0,0.0,0.0,0.0,0.0,0.0,0
-103.0,-89.0,-67.0,-68.0,-54.0,-42.0,4.0,-4.0,0.0,0.0,0.0,0.0,0.0,0.0,0.0,0.0,0
-101.0,-90.0,-78.0,-66.0,-51.0,-44.0,-37.0,-8.0,0.0,0.0,0.0,0.0,0.0,0.0,0.0,0.0,0
-76.0,-84.0,-84.0,-75.0,-51.0,-43.0,-60.0,-16.0,0.0,0.0,0.0,0.0,0.0,0.0,0.0,0.0,0
-38.0,-71.0,-78.0,-80.0,-51.0,-45.0,-60.0,-22.0,0.0,0.0,0.0,0.0,0.0,0.0,0.0,0.0,0
-14.0,-59.0,-63.0,-73.0,-46.0,-41.0,-62.0,-33.0,0.0,0.0,0.0,0.0,0.0,0.0,0.0,0.0,0
4.0,-51.0,-63.0,-67.0,-45.0,-33.0,-64.0,-48.0,0.0,0.0,0.0,0.0,0.0,0.0,0.0,0.0,0
0.0,-36.0,-60.0,-55.0,-38.0,-33.0,-38.0,-46.0,0.0,0.0,0.0,0.0,0.0,0.0,0.0,0.0,0
-8.0,-20.0,-44.0,-48.0,-29.0,-38.0,-35.0,-49.0,0.0,0.0,0.0,0.0,0.0,0.0,0.0,0.0,0
-4.0,0.0,-27.0,-44.0,-26.0,-32.0,-53.0,-54.0,0.0,0.0,0.0,0.0,0.0,0.0,0.0,0.0,0
-30.0,5.0,-22.0,-29.0,-4.0,-28.0,-5.0,-55.0,0.0,0.0,0.0,0.0,0.0,0.0,0.0,0.0,0
-59.0,3.0,-11.0,-2.0,9.0,-29.0,16.0,-45.0,0.0,0.0,0.0,0.0,0.0,0.0,0.0,0.0,0
-51.0,11.0,3.0,16.0,11.0,-30.0,-8.0,-47.0,0.0,0.0,0.0,0.0,0.0,0.0,0.0,0.0,0
-39.0,6.0,6.0,16.0,14.0,-23.0,-25.0,-42.0,0.0,0.0,0.0,0.0,0.0,0.0,0.0,0.0,0
-25.0,1.0,-1.0,24.0,15.0,-27.0,-49.0,-39.0,0.0,0.0,0.0,0.0,0.0,0.0,0.0,0.0,0
-13.0,-12.0,-4.0,20.0,-3.0,-27.0,-58.0,-47.0,0.0,0.0,0.0,0.0,0.0,0.0,0.0,0.0,0
-26.0,-30.0,-17.0,7.0,-24.0,-28.0,-23.0,-41.0,0.0,0.0,0.0,0.0,0.0,0.0,0.0,0.0,0
-29.0,-50.0,-35.0,-3.0,-32.0,-23.0,-15.0,-31.0,0.0,0.0,0.0,0.0,0.0,0.0,0.0,0.0,0
-43.0,-51.0,-43.0,-15.0,-38.0,-31.0,-19.0,-14.0,0.0,0.0,0.0,0.0,0.0,0.0,0.0,0.0,0
-46.0,-50.0,-44.0,-16.0,-30.0,-32.0,-25.0,-8.0,0.0,0.0,0.0,0.0,0.0,0.0,0.0,0.0,0
-57.0,-43.0,-37.0,-21.0,-34.0,-34.0,-3.0,0.0,0.0,0.0,0.0,0.0,0.0,0.0,0.0,0.0,0
-65.0,-42.0,-43.0,-35.0,-44.0,-40.0,-16.0,1.0,0.0,0.0,0.0,0.0,0.0,0.0,0.0,0.0,0
-63.0,-58.0,-54.0,-47.0,-45.0,-43.0,-46.0,0.0,0.0,0.0,0.0,0.0,0.0,0.0,0.0,0.0,0
-48.0,-73.0,-61.0,-52.0,-44.0,-45.0,-61.0,-19.0,0.0,0.0,0.0,0.0,0.0,0.0,0.0,0.0,0
-51.0,-84.0,-82.0,-74.0,-48.0,-49.0,-50.0,-25.0,0.0,0.0,0.0,0.0,0.0,0.0,0.0,0.0,0
-44.0,-61.0,-74.0,-81.0,-52.0,-49.0,-60.0,-35.0,0.0,0.0,0.0,0.0,0.0,0.0,0.0,0.0,0
-13.0,-32.0,-60.0,-79.0,-48.0,-57.0,-86.0,-43.0,0.0,0.0,0.0,0.0,0.0,0.0,0.0,0.0,0
-8.0,-13.0,-54.0,-75.0,-46.0,-59.0,-52.0,-44.0,0.0,0.0,0.0,0.0,0.0,0.0,0.0,0.0,0
-12.0,-7.0,-49.0,-71.0,-41.0,-49.0,-33.0,-49.0,0.0,0.0,0.0,0.0,0.0,0.0,0.0,0.0,0
-3.0,5.0,-40.0,-57.0,-36.0,-38.0,-54.0,-55.0,0.0,0.0,0.0,0.0,0.0,0.0,0.0,0.0,0
-18.0,26.0,-12.0,-35.0,-24.0,-35.0,-1.0,-48.0,0.0,0.0,0.0,0.0,0.0,0.0,0.0,0.0,0
-45.0,26.0,1.0,-24.0,-12.0,-27.0,21.0,-44.0,0.0,0.0,0.0,0.0,0.0,0.0,0.0,0.0,0
-63.0,12.0,-2.0,-17.0,-6.0,-24.0,-9.0,-45.0,0.0,0.0,0.0,0.0,0.0,0.0,0.0,0.0,0
-38.0,10.0,-7.0,-13.0,-13.0,-28.0,-32.0,-50.0,0.0,0.0,0.0,0.0,0.0,0.0,0.0,0.0,0
-17.0,14.0,0.0,-2.0,-18.0,-24.0,-55.0,-45.0,0.0,0.0,0.0,0.0,0.0,0.0,0.0,0.0,0
3.0,4.0,3.0,11.0,-20.0,-35.0,-65.0,-49.0,0.0,0.0,0.0,0.0,0.0,0.0,0.0,0.0,0
0.0,1.0,-8.0,17.0,-26.0,-32.0,-39.0,-32.0,0.0,0.0,0.0,0.0,0.0,0.0,0.0,0.0,0
-13.0,-18.0,-13.0,19.0,-24.0,-31.0,-25.0,-22.0,0.0,0.0,0.0,0.0,0.0,0.0,0.0,0.0,0
-29.0,-35.0,-21.0,9.0,-20.0,-37.0,-15.0,-20.0,0.0,0.0,0.0,0.0,0.0,0.0,0.0,0.0,0
-48.0,-42.0,-22.0,3.0,-19.0,-37.0,-34.0,-10.0,0.0,0.0,0.0,0.0,0.0,0.0,0.0,0.0,0
-61.0,-56.0,-21.0,-3.0,-6.0,-29.0,-13.0,4.0,0.0,0.0,0.0,0.0,0.0,0.0,0.0,0.0,0
-66.0,-69.0,-36.0,-11.0,-9.0,-28.0,-20.0,8.0,0.0,0.0,0.0,0.0,0.0,0.0,0.0,0.0,0
-72.0,-86.0,-51.0,-38.0,-24.0,-39.0,-59.0,-1.0,0.0,0.0,0.0,0.0,0.0,0.0,0.0,0.0,0
-48.0,-85.0,-56.0,-53.0,-26.0,-41.0,-75.0,-7.0,0.0,0.0,0.0,0.0,0.0,0.0,0.0,0.0,0
-23.0,-73.0,-63.0,-67.0,-32.0,-30.0,-61.0,-10.0,0.0,0.0,0.0,0.0,0.0,0.0,0.0,0.0,0
-18.0,-65.0,-61.0,-76.0,-48.0,-29.0,-67.0,-23.0,0.0,0.0,0.0,0.0,0.0,0.0,0.0,0.0,0
-3.0,-44.0,-53.0,-87.0,-51.0,-34.0,-83.0,-32.0,0.0,0.0,0.0,0.0,0.0,0.0,0.0,0.0,0
9.0,-27.0,-47.0,-98.0,-64.0,-41.0,-65.0,-41.0,0.0,0.0,0.0,0.0,0.0,0.0,0.0,0.0,0
3.0,-15.0,-41.0,-91.0,-62.0,-40.0,-51.0,-45.0,0.0,0.0,0.0,0.0,0.0,0.0,0.0,0.0,0
8.0,-4.0,-38.0,-83.0,-57.0,-34.0,-64.0,-53.0,0.0,0.0,0.0,0.0,0.0,0.0,0.0,0.0,0
-20.0,-7.0,-29.0,-76.0,-53.0,-37.0,-16.0,-49.0,0.0,0.0,0.0,0.0,0.0,0.0,0.0,0.0,0
-38.0,6.0,-24.0,-60.0,-45.0,-37.0,5.0,-44.0,0.0,0.0,0.0,0.0,0.0,0.0,0.0,0.0,0
-22.0,2.0,-28.0,-52.0,-38.0,-28.0,-30.0,-50.0,0.0,0.0,0.0,0.0,0.0,0.0,0.0,0.0,0
-15.0,0.0,-21.0,-21.0,-27.0,-31.0,-32.0,-47.0,0.0,0.0,0.0,0.0,0.0,0.0,0.0,0.0,0
-4.0,10.0,-12.0,5.0,-24.0,-28.0,-43.0,-41.0,0.0,0.0,0.0,0.0,0.0,0.0,0.0,0.0,0
11.0,7.0,-3.0,21.0,-13.0,-17.0,-58.0,-37.0,0.0,0.0,0.0,0.0,0.0,0.0,0.0,0.0,0
-13.0,-3.0,0.0,26.0,-1.0,-22.0,-21.0,-23.0,0.0,0.0,0.0,0.0,0.0,0.0,0.0,0.0,0
-33.0,-17.0,-4.0,28.0,-4.0,-26.0,-7.0,-11.0,0.0,0.0,0.0,0.0,0.0,0.0,0.0,0.0,0
-45.0,-29.0,-4.0,11.0,-22.0,-32.0,-4.0,-7.0,0.0,0.0,0.0,0.0,0.0,0.0,0.0,0.0,0
-56.0,-40.0,-15.0,-9.0,-35.0,-41.0,-17.0,-4.0,0.0,0.0,0.0,0.0,0.0,0.0,0.0,0.0,0
-76.0,-52.0,-26.0,-18.0,-42.0,-46.0,3.0,-3.0,0.0,0.0,0.0,0.0,0.0,0.0,0.0,0.0,0
-87.0,-55.0,-28.0,-27.0,-54.0,-46.0,-5.0,4.0,0.0,0.0,0.0,0.0,0.0,0.0,0.0,0.0,0
-78.0,-58.0,-35.0,-38.0,-61.0,-58.0,-40.0,-3.0,0.0,0.0,0.0,0.0,0.0,0.0,0.0,0.0,0
-54.0,-70.0,-44.0,-56.0,-52.0,-52.0,-72.0,-10.0,0.0,0.0,0.0,0.0,0.0,0.0,0.0,0.0,0
-42.0,-76.0,-46.0,-71.0,-50.0,-47.0,-62.0,-14.0,0.0,0.0,0.0,0.0,0.0,0.0,0.0,0.0,0
-53.0,-63.0,-48.0,-66.0,-56.0,-48.0,-58.0,-15.0,0.0,0.0,0.0,0.0,0.0,0.0,0.0,0.0,0
-37.0,-49.0,-44.0,-60.0,-45.0,-43.0,-73.0,-30.0,0.0,0.0,0.0,0.0,0.0,0.0,0.0,0.0,0
-6.0,-38.0,-44.0,-63.0,-43.0,-37.0,-43.0,-31.0,0.0,0.0,0.0,0.0,0.0,0.0,0.0,0.0,0
3.0,-39.0,-50.0,-64.0,-38.0,-32.0,-32.0,-43.0,0.0,0.0,0.0,0.0,0.0,0.0,0.0,0.0,0
4.0,-44.0,-52.0,-58.0,-34.0,-24.0,-43.0,-53.0,0.0,0.0,0.0,0.0,0.0,0.0,0.0,0.0,0
-17.0,-30.0,-43.0,-46.0,-32.0,-18.0,2.0,-49.0,0.0,0.0,0.0,0.0,0.0,0.0,0.0,0.0,0
-50.0,-16.0,-35.0,-36.0,-23.0,-20.0,20.0,-45.0,0.0,0.0,0.0,0.0,0.0,0.0,0.0,0.0,0
-43.0,5.0,-22.0,-22.0,-22.0,-11.0,-3.0,-44.0,0.0,0.0,0.0,0.0,0.0,0.0,0.0,0.0,0
-30.0,2.0,-29.0,-25.0,-28.0,-15.0,-27.0,-47.0,0.0,0.0,0.0,0.0,0.0,0.0,0.0,0.0,0
-12.0,5.0,-35.0,-8.0,-21.0,-15.0,-46.0,-55.0,0.0,0.0,0.0,0.0,0.0,0.0,0.0,0.0,0
1.0,-10.0,-27.0,9.0,-17.0,-15.0,-61.0,-62.0,0.0,0.0,0.0,0.0,0.0,0.0,0.0,0.0,0
-29.0,-30.0,-38.0,9.0,-30.0,-22.0,-35.0,-58.0,0.0,0.0,0.0,0.0,0.0,0.0,0.0,0.0,0
-45.0,-36.0,-38.0,10.0,-22.0,-26.0,-23.0,-44.0,0.0,0.0,0.0,0.0,0.0,0.0,0.0,0.0,0
-46.0,-29.0,-32.0,13.0,-20.0,-25.0,-17.0,-32.0,0.0,0.0,0.0,0.0,0.0,0.0,0.0,0.0,0
-41.0,-33.0,-23.0,21.0,-22.0,-30.0,-18.0,-23.0,0.0,0.0,0.0,0.0,0.0,0.0,0.0,0.0,0
-55.0,-38.0,-27.0,21.0,-25.0,-33.0,11.0,-28.0,0.0,0.0,0.0,0.0,0.0,0.0,0.0,0.0,0
-58.0,-38.0,-30.0,6.0,-33.0,-35.0,2.0,-20.0,0.0,0.0,0.0,0.0,0.0,0.0,0.0,0.0,0
-44.0,-45.0,-30.0,-9.0,-37.0,-39.0,-33.0,-20.0,0.0,0.0,0.0,0.0,0.0,0.0,0.0,0.0,0
-20.0,-40.0,-21.0,-9.0,-38.0,-39.0,-51.0,-28.0,0.0,0.0,0.0,0.0,0.0,0.0,0.0,0.0,0
-15.0,-35.0,-24.0,-20.0,-39.0,-35.0,-43.0,-34.0,0.0,0.0,0.0,0.0,0.0,0.0,0.0,0.0,0
-21.0,-32.0,-26.0,-37.0,-41.0,-31.0,-44.0,-34.0,0.0,0.0,0.0,0.0,0.0,0.0,0.0,0.0,0
-3.0,-27.0,-26.0,-44.0,-39.0,-30.0,-63.0,-37.0,0.0,0.0,0.0,0.0,0.0,0.0,0.0,0.0,0
9.0,-29.0,-26.0,-41.0,-44.0,-31.0,-36.0,-31.0,0.0,0.0,0.0,0.0,0.0,0.0,0.0,0.0,0
-10.0,-20.0,-26.0,-48.0,-42.0,-32.0,-21.0,-38.0,0.0,0.0,0.0,0.0,0.0,0.0,0.0,0.0,0
-10.0,0.0,-27.0,-36.0,-34.0,-31.0,-48.0,-49.0,0.0,0.0,0.0,0.0,0.0,0.0,0.0,0.0,0
-29.0,23.0,-27.0,-38.0,-39.0,-31.0,-17.0,-46.0,0.0,0.0,0.0,0.0,0.0,0.0,0.0,0.0,0
-67.0,5.0,-39.0,-44.0,-47.0,-43.0,8.0,-42.0,0.0,0.0,0.0,0.0,0.0,0.0,0.0,0.0,0
-62.0,-15.0,-51.0,-41.0,-43.0,-41.0,-20.0,-49.0,0.0,0.0,0.0,0.0,0.0,0.0,0.0,0.0,0
-39.0,-13.0,-46.0,-43.0,-41.0,-43.0,-35.0,-54.0,0.0,0.0,0.0,0.0,0.0,0.0,0.0,0.0,0
-32.0,-10.0,-49.0,-36.0,-33.0,-42.0,-60.0,-52.0,0.0,0.0,0.0,0.0,0.0,0.0,0.0,0.0,0
-15.0,-8.0,-40.0,-21.0,-24.0,-35.0,-72.0,-55.0,0.0,0.0,0.0,0.0,0.0,0.0,0.0,0.0,0
-15.0,-10.0,-35.0,-7.0,-22.0,-37.0,-31.0,-49.0,0.0,0.0,0.0,0.0,0.0,0.0,0.0,0.0,0
-32.0,-25.0,-40.0,-14.0,-25.0,-40.0,-35.0,-42.0,0.0,0.0,0.0,0.0,0.0,0.0,0.0,0.0,0
-35.0,-40.0,-43.0,-28.0,-35.0,-39.0,-35.0,-27.0,0.0,0.0,0.0,0.0,0.0,0.0,0.0,0.0,0
-38.0,-49.0,-52.0,-35.0,-42.0,-47.0,-45.0,-21.0,0.0,0.0,0.0,0.0,0.0,0.0,0.0,0.0,0
-55.0,-63.0,-58.0,-47.0,-45.0,-50.0,-23.0,-6.0,0.0,0.0,0.0,0.0,0.0,0.0,0.0,0.0,0
-69.0,-63.0,-67.0,-66.0,-56.0,-53.0,-17.0,-8.0,0.0,0.0,0.0,0.0,0.0,0.0,0.0,0.0,0
-47.0,-58.0,-64.0,-81.0,-55.0,-54.0,-46.0,-7.0,0.0,0.0,0.0,0.0,0.0,0.0,0.0,0.0,0
-29.0,-54.0,-48.0,-86.0,-57.0,-41.0,-73.0,-13.0,0.0,0.0,0.0,0.0,0.0,0.0,0.0,0.0,0
-36.0,-48.0,-39.0,-83.0,-57.0,-41.0,-55.0,-10.0,0.0,0.0,0.0,0.0,0.0,0.0,0.0,0.0,0
-28.0,-47.0,-29.0,-86.0,-52.0,-41.0,-55.0,-14.0,0.0,0.0,0.0,0.0,0.0,0.0,0.0,0.0,0
4.0,-45.0,-28.0,-80.0,-41.0,-32.0,-81.0,-25.0,0.0,0.0,0.0,0.0,0.0,0.0,0.0,0.0,0
-1.0,-48.0,-26.0,-76.0,-33.0,-28.0,-47.0,-30.0,0.0,0.0,0.0,0.0,0.0,0.0,0.0,0.0,0
-21.0,-47.0,-36.0,-81.0,-37.0,-37.0,-30.0,-38.0,0.0,0.0,0.0,0.0,0.0,0.0,0.0,0.0,0
-18.0,-58.0,-51.0,-88.0,-46.0,-41.0,-52.0,-39.0,0.0,0.0,0.0,0.0,0.0,0.0,0.0,0.0,0
-36.0,-52.0,-58.0,-80.0,-41.0,-43.0,-6.0,-35.0,0.0,0.0,0.0,0.0,0.0,0.0,0.0,0.0,0
-67.0,-37.0,-40.0,-79.0,-34.0,-34.0,3.0,-31.0,0.0,0.0,0.0,0.0,0.0,0.0,0.0,0.0,0
-54.0,-15.0,-32.0,-68.0,-36.0,-30.0,-29.0,-35.0,0.0,0.0,0.0,0.0,0.0,0.0,0.0,0.0,0
-33.0,-2.0,-18.0,-55.0,-35.0,-30.0,-41.0,-34.0,0.0,0.0,0.0,0.0,0.0,0.0,0.0,0.0,0
-13.0,1.0,-1.0,-36.0,-28.0,-29.0,-54.0,-35.0,0.0,0.0,0.0,0.0,0.0,0.0,0.0,0.0,0
3.0,-2.0,5.0,-5.0,-20.0,-25.0,-69.0,-44.0,0.0,0.0,0.0,0.0,0.0,0.0,0.0,0.0,0
-20.0,-15.0,1.0,5.0,-16.0,-25.0,-34.0,-42.0,0.0,0.0,0.0,0.0,0.0,0.0,0.0,0.0,0
-38.0,-25.0,2.0,21.0,-14.0,-28.0,-23.0,-31.0,0.0,0.0,0.0,0.0,0.0,0.0,0.0,0.0,0
-44.0,-28.0,9.0,43.0,-16.0,-35.0,-25.0,-31.0,0.0,0.0,0.0,0.0,0.0,0.0,0.0,0.0,0
-37.0,-35.0,4.0,56.0,-22.0,-38.0,-34.0,-33.0,0.0,0.0,0.0,0.0,0.0,0.0,0.0,0.0,0
-49.0,-47.0,4.0,53.0,-22.0,-37.0,1.0,-24.0,0.0,0.0,0.0,0.0,0.0,0.0,0.0,0.0,0
-68.0,-52.0,-9.0,36.0,-22.0,-40.0,6.0,-14.0,0.0,0.0,0.0,0.0,0.0,0.0,0.0,0.0,0
-57.0,-62.0,-16.0,22.0,-26.0,-34.0,-30.0,-18.0,0.0,0.0,0.0,0.0,0.0,0.0,0.0,0.0,0
-44.0,-68.0,-31.0,6.0,-30.0,-29.0,-59.0,-18.0,0.0,0.0,0.0,0.0,0.0,0.0,0.0,0.0,0
-48.0,-67.0,-43.0,-27.0,-42.0,-30.0,-49.0,-19.0,0.0,0.0,0.0,0.0,0.0,0.0,0.0,0.0,0
-41.0,-47.0,-38.0,-46.0,-45.0,-30.0,-42.0,-16.0,0.0,0.0,0.0,0.0,0.0,0.0,0.0,0.0,0
-20.0,-42.0,-41.0,-52.0,-42.0,-29.0,-60.0,-21.0,0.0,0.0,0.0,0.0,0.0,0.0,0.0,0.0,0
-4.0,-34.0,-41.0,-66.0,-48.0,-29.0,-40.0,-24.0,0.0,0.0,0.0,0.0,0.0,0.0,0.0,0.0,0
-21.0,-28.0,-42.0,-77.0,-47.0,-34.0,-27.0,-26.0,0.0,0.0,0.0,0.0,0.0,0.0,0.0,0.0,0
-27.0,-33.0,-54.0,-74.0,-43.0,-34.0,-45.0,-38.0,0.0,0.0,0.0,0.0,0.0,0.0,0.0,0.0,0
-34.0,-25.0,-67.0,-72.0,-45.0,-28.0,-9.0,-46.0,0.0,0.0,0.0,0.0,0.0,0.0,0.0,0.0,0
-48.0,-18.0,-77.0,-71.0,-44.0,-38.0,3.0,-46.0,0.0,0.0,0.0,0.0,0.0,0.0,0.0,0.0,0
-46.0,-21.0,-73.0,-68.0,-48.0,-44.0,-38.0,-51.0,0.0,0.0,0.0,0.0,0.0,0.0,0.0,0.0,0
-34.0,-26.0,-62.0,-57.0,-49.0,-52.0,-54.0,-53.0,0.0,0.0,0.0,0.0,0.0,0.0,0.0,0.0,0
-32.0,-31.0,-56.0,-47.0,-40.0,-43.0,-67.0,-56.0,0.0,0.0,0.0,0.0,0.0,0.0,0.0,0.0,0
-22.0,-34.0,-54.0,-37.0,-37.0,-41.0,-78.0,-57.0,0.0,0.0,0.0,0.0,0.0,0.0,0.0,0.0,0
-36.0,-41.0,-56.0,-31.0,-41.0,-39.0,-33.0,-62.0,0.0,0.0,0.0,0.0,0.0,0.0,0.0,0.0,0
-50.0,-59.0,-64.0,-37.0,-45.0,-41.0,-14.0,-49.0,0.0,0.0,0.0,0.0,0.0,0.0,0.0,0.0,0
-41.0,-67.0,-68.0,-50.0,-52.0,-42.0,-24.0,-43.0,0.0,0.0,0.0,0.0,0.0,0.0,0.0,0.0,0
-33.0,-71.0,-70.0,-55.0,-65.0,-47.0,-47.0,-42.0,0.0,0.0,0.0,0.0,0.0,0.0,0.0,0.0,0
-61.0,-81.0,-62.0,-55.0,-72.0,-43.0,-13.0,-35.0,0.0,0.0,0.0,0.0,0.0,0.0,0.0,0.0,0
-84.0,-81.0,-50.0,-52.0,-66.0,-49.0,1.0,-30.0,0.0,0.0,0.0,0.0,0.0,0.0,0.0,0.0,0
-73.0,-77.0,-45.0,-58.0,-59.0,-46.0,-25.0,-26.0,0.0,0.0,0.0,0.0,0.0,0.0,0.0,0.0,0
-47.0,-76.0,-49.0,-63.0,-56.0,-39.0,-60.0,-37.0,0.0,0.0,0.0,0.0,0.0,0.0,0.0,0.0,0
-25.0,-65.0,-46.0,-63.0,-43.0,-40.0,-46.0,-40.0,0.0,0.0,0.0,0.0,0.0,0.0,0.0,0.0,0
-13.0,-51.0,-46.0,-63.0,-37.0,-37.0,-45.0,-35.0,0.0,0.0,0.0,0.0,0.0,0.0,0.0,0.0,0
16.0,-36.0,-39.0,-55.0,-22.0,-32.0,-73.0,-40.0,0.0,0.0,0.0,0.0,0.0,0.0,0.0,0.0,0
15.0,-29.0,-30.0,-45.0,-7.0,-25.0,-40.0,-38.0,0.0,0.0,0.0,0.0,0.0,0.0,0.0,0.0,0
12.0,-15.0,-19.0,-30.0,14.0,-18.0,-17.0,-41.0,0.0,0.0,0.0,0.0,0.0,0.0,0.0,0.0,0
22.0,-1.0,-10.0,-11.0,27.0,-19.0,-34.0,-41.0,0.0,0.0,0.0,0.0,0.0,0.0,0.0,0.0,0
0.0,2.0,2.0,11.0,38.0,-21.0,11.0,-39.0,0.0,0.0,0.0,0.0,0.0,0.0,0.0,0.0,0
-34.0,6.0,14.0,31.0,35.0,-20.0,25.0,-31.0,0.0,0.0,0.0,0.0,0.0,0.0,0.0,0.0,0
-31.0,11.0,18.0,39.0,24.0,-30.0,-5.0,-34.0,0.0,0.0,0.0,0.0,0.0,0.0,0.0,0.0,0
-30.0,5.0,19.0,36.0,9.0,-28.0,-27.0,-38.0,0.0,0.0,0.0,0.0,0.0,0.0,0.0,0.0,0
-15.0,-6.0,12.0,32.0,-8.0,-25.0,-51.0,-39.0,0.0,0.0,0.0,0.0,0.0,0.0,0.0,0.0,0
10.0,-19.0,-8.0,17.0,-16.0,-29.0,-61.0,-41.0,0.0,0.0,0.0,0.0,0.0,0.0,0.0,0.0,0
-17.0,-38.0,-24.0,-9.0,-44.0,-45.0,-23.0,-40.0,0.0,0.0,0.0,0.0,0.0,0.0,0.0,0.0,0
-43.0,-48.0,-26.0,-31.0,-61.0,-49.0,-14.0,-43.0,0.0,0.0,0.0,0.0,0.0,0.0,0.0,0.0,0
-56.0,-56.0,-31.0,-48.0,-71.0,-39.0,-21.0,-33.0,0.0,0.0,0.0,0.0,0.0,0.0,0.0,0.0,0
-55.0,-65.0,-41.0,-73.0,-79.0,-35.0,-32.0,-32.0,0.0,0.0,0.0,0.0,0.0,0.0,0.0,0.0,0
-70.0,-75.0,-52.0,-82.0,-73.0,-33.0,3.0,-30.0,0.0,0.0,0.0,0.0,0.0,0.0,0.0,0.0,0
-100.0,-78.0,-57.0,-84.0,-71.0,-27.0,9.0,-33.0,0.0,0.0,0.0,0.0,0.0,0.0,0.0,0.0,0
-74.0,-64.0,-62.0,-84.0,-60.0,-29.0,-29.0,-27.0,0.0,0.0,0.0,0.0,0.0,0.0,0.0,0.0,0
-27.0,-49.0,-65.0,-85.0,-53.0,-20.0,-68.0,-36.0,0.0,0.0,0.0,0.0,0.0,0.0,0.0,0.0,0
-11.0,-54.0,-66.0,-91.0,-58.0,-15.0,-67.0,-41.0,0.0,0.0,0.0,0.0,0.0,0.0,0.0,0.0,0
-16.0,-48.0,-72.0,-101.0,-68.0,-23.0,-64.0,-47.0,0.0,0.0,0.0,0.0,0.0,0.0,0.0,0.0,0
-2.0,-44.0,-69.0,-99.0,-63.0,-29.0,-93.0,-60.0,0.0,0.0,0.0,0.0,0.0,0.0,0.0,0.0,0
12.0,-26.0,-53.0,-76.0,-61.0,-33.0,-64.0,-59.0,0.0,0.0,0.0,0.0,0.0,0.0,0.0,0.0,0
10.0,-10.0,-43.0,-49.0,-46.0,-27.0,-55.0,-55.0,0.0,0.0,0.0,0.0,0.0,0.0,0.0,0.0,0
8.0,12.0,-25.0,-32.0,-40.0,-24.0,-64.0,-51.0,0.0,0.0,0.0,0.0,0.0,0.0,0.0,0.0,0
-16.0,15.0,-1.0,-9.0,-32.0,-14.0,-20.0,-39.0,0.0,0.0,0.0,0.0,0.0,0.0,0.0,0.0,0
-42.0,14.0,5.0,14.0,-28.0,-17.0,3.0,-26.0,0.0,0.0,0.0,0.0,0.0,0.0,0.0,0.0,0
-60.0,2.0,9.0,27.0,-30.0,-24.0,-24.0,-24.0,0.0,0.0,0.0,0.0,0.0,0.0,0.0,0.0,0
-56.0,-7.0,4.0,21.0,-37.0,-32.0,-43.0,-28.0,0.0,0.0,0.0,0.0,0.0,0.0,0.0,0.0,0
-36.0,-11.0,-1.0,20.0,-34.0,-35.0,-70.0,-22.0,0.0,0.0,0.0,0.0,0.0,0.0,0.0,0.0,0
-7.0,-9.0,-8.0,16.0,-30.0,-41.0,-93.0,-27.0,0.0,0.0,0.0,0.0,0.0,0.0,0.0,0.0,0
-15.0,-16.0,-18.0,6.0,-39.0,-44.0,-49.0,-29.0,0.0,0.0,0.0,0.0,0.0,0.0,0.0,0.0,0
-31.0,-37.0,-37.0,-12.0,-44.0,-46.0,-37.0,-24.0,0.0,0.0,0.0,0.0,0.0,0.0,0.0,0.0,0
-23.0,-49.0,-40.0,-23.0,-44.0,-48.0,-44.0,-19.0,0.0,0.0,0.0,0.0,0.0,0.0,0.0,0.0,0
-18.0,-52.0,-49.0,-27.0,-38.0,-40.0,-55.0,-21.0,0.0,0.0,0.0,0.0,0.0,0.0,0.0,0.0,0
-43.0,-56.0,-56.0,-38.0,-36.0,-43.0,-14.0,-15.0,0.0,0.0,0.0,0.0,0.0,0.0,0.0,0.0,0
-86.0,-74.0,-68.0,-49.0,-42.0,-38.0,-3.0,-15.0,0.0,0.0,0.0,0.0,0.0,0.0,0.0,0.0,0
-69.0,-72.0,-66.0,-47.0,-41.0,-35.0,-36.0,-19.0,0.0,0.0,0.0,0.0,0.0,0.0,0.0,0.0,0
-41.0,-65.0,-63.0,-49.0,-35.0,-27.0,-58.0,-21.0,0.0,0.0,0.0,0.0,0.0,0.0,0.0,0.0,0
-34.0,-72.0,-65.0,-51.0,-39.0,-24.0,-53.0,-39.0,0.0,0.0,0.0,0.0,0.0,0.0,0.0,0.0,0
-16.0,-71.0,-65.0,-56.0,-38.0,-35.0,-57.0,-49.0,0.0,0.0,0.0,0.0,0.0,0.0,0.0,0.0,0
8.0,-68.0,-65.0,-60.0,-33.0,-25.0,-68.0,-54.0,0.0,0.0,0.0,0.0,0.0,0.0,0.0,0.0,0
-1.0,-53.0,-58.0,-60.0,-31.0,-25.0,-47.0,-62.0,0.0,0.0,0.0,0.0,0.0,0.0,0.0,0.0,0
-19.0,-39.0,-52.0,-65.0,-15.0,-29.0,-30.0,-58.0,0.0,0.0,0.0,0.0,0.0,0.0,0.0,0.0,0
-18.0,-32.0,-59.0,-70.0,-4.0,-25.0,-39.0,-58.0,0.0,0.0,0.0,0.0,0.0,0.0,0.0,0.0,0
-53.0,-33.0,-56.0,-73.0,-2.0,-28.0,1.0,-44.0,0.0,0.0,0.0,0.0,0.0,0.0,0.0,0.0,0
-72.0,-31.0,-50.0,-68.0,-1.0,-31.0,22.0,-42.0,0.0,0.0,0.0,0.0,0.0,0.0,0.0,0.0,0
-62.0,-24.0,-44.0,-60.0,-7.0,-38.0,-14.0,-42.0,0.0,0.0,0.0,0.0,0.0,0.0,0.0,0.0,0
-59.0,-20.0,-38.0,-39.0,-7.0,-42.0,-36.0,-46.0,0.0,0.0,0.0,0.0,0.0,0.0,0.0,0.0,0
-43.0,-15.0,-22.0,-18.0,1.0,-42.0,-52.0,-49.0,0.0,0.0,0.0,0.0,0.0,0.0,0.0,0.0,0
-20.0,-19.0,-12.0,-6.0,7.0,-43.0,-64.0,-47.0,0.0,0.0,0.0,0.0,0.0,0.0,0.0,0.0,0
-20.0,-27.0,-10.0,-2.0,2.0,-52.0,-20.0,-38.0,0.0,0.0,0.0,0.0,0.0,0.0,0.0,0.0,0
-28.0,-32.0,-10.0,4.0,-18.0,-59.0,-8.0,-29.0,0.0,0.0,0.0,0.0,0.0,0.0,0.0,0.0,0
-34.0,-40.0,5.0,15.0,-32.0,-59.0,-18.0,-28.0,0.0,0.0,0.0,0.0,0.0,0.0,0.0,0.0,0
-32.0,-45.0,16.0,26.0,-31.0,-51.0,-21.0,-20.0,0.0,0.0,0.0,0.0,0.0,0.0,0.0,0.0,0
-57.0,-44.0,11.0,13.0,-24.0,-47.0,14.0,-23.0,0.0,0.0,0.0,0.0,0.0,0.0,0.0,0.0,0
-64.0,-53.0,-3.0,2.0,-33.0,-42.0,18.0,-21.0,0.0,0.0,0.0,0.0,0.0,0.0,0.0,0.0,0
-64.0,-69.0,-9.0,0.0,-29.0,-27.0,-17.0,-19.0,0.0,0.0,0.0,0.0,0.0,0.0,0.0,0.0,0
-45.0,-74.0,-17.0,-15.0,-29.0,-15.0,-44.0,-20.0,0.0,0.0,0.0,0.0,0.0,0.0,0.0,0.0,0
-30.0,-68.0,-16.0,-38.0,-29.0,-11.0,-26.0,-28.0,0.0,0.0,0.0,0.0,0.0,0.0,0.0,0.0,0
-21.0,-64.0,-28.0,-56.0,-28.0,-9.0,-23.0,-32.0,0.0,0.0,0.0,0.0,0.0,0.0,0.0,0.0,0
3.0,-70.0,-40.0,-69.0,-32.0,-11.0,-53.0,-27.0,0.0,0.0,0.0,0.0,0.0,0.0,0.0,0.0,0
-4.0,-62.0,-50.0,-79.0,-35.0,-7.0,-38.0,-28.0,0.0,0.0,0.0,0.0,0.0,0.0,0.0,0.0,0
-6.0,-34.0,-48.0,-80.0,-32.0,-8.0,-17.0,-18.0,0.0,0.0,0.0,0.0,0.0,0.0,0.0,0.0,0
2.0,-23.0,-61.0,-81.0,-27.0,-14.0,-28.0,-24.0,0.0,0.0,0.0,0.0,0.0,0.0,0.0,0.0,0
-14.0,-8.0,-49.0,-74.0,-29.0,-22.0,12.0,-29.0,0.0,0.0,0.0,0.0,0.0,0.0,0.0,0.0,0
-30.0,11.0,-38.0,-59.0,-20.0,-26.0,20.0,-22.0,0.0,0.0,0.0,0.0,0.0,0.0,0.0,0.0,0
-25.0,6.0,-42.0,-52.0,-19.0,-31.0,-10.0,-24.0,0.0,0.0,0.0,0.0,0.0,0.0,0.0,0.0,0
-36.0,-2.0,-43.0,-53.0,-27.0,-47.0,-25.0,-27.0,0.0,0.0,0.0,0.0,0.0,0.0,0.0,0.0,0
-44.0,4.0,-45.0,-58.0,-39.0,-50.0,-41.0,-36.0,0.0,0.0,0.0,0.0,0.0,0.0,0.0,0.0,0
-23.0,-3.0,-49.0,-52.0,-47.0,-52.0,-60.0,-42.0,0.0,0.0,0.0,0.0,0.0,0.0,0.0,0.0,0
-16.0,-21.0,-42.0,-54.0,-41.0,-57.0,-22.0,-42.0,0.0,0.0,0.0,0.0,0.0,0.0,0.0,0.0,0
-25.0,-35.0,-30.0,-31.0,-32.0,-51.0,-13.0,-38.0,0.0,0.0,0.0,0.0,0.0,0.0,0.0,0.0,0
-61.0,-55.0,-30.0,-31.0,-44.0,-46.0,-18.0,-35.0,0.0,0.0,0.0,0.0,0.0,0.0,0.0,0.0,0
-69.0,-62.0,-35.0,-34.0,-70.0,-47.0,-34.0,-41.0,0.0,0.0,0.0,0.0,0.0,0.0,0.0,0.0,0
-73.0,-61.0,-35.0,-30.0,-74.0,-41.0,-7.0,-39.0,0.0,0.0,0.0,0.0,0.0,0.0,0.0,0.0,0
-73.0,-58.0,-42.0,-13.0,-57.0,-35.0,-6.0,-28.0,0.0,0.0,0.0,0.0,0.0,0.0,0.0,0.0,0
-55.0,-59.0,-37.0,-10.0,-43.0,-17.0,-42.0,-28.0,0.0,0.0,0.0,0.0,0.0,0.0,0.0,0.0,0
-32.0,-59.0,-31.0,-8.0,-34.0,-8.0,-69.0,-38.0,0.0,0.0,0.0,0.0,0.0,0.0,0.0,0.0,0
-27.0,-53.0,-26.0,-18.0,-33.0,-17.0,-65.0,-41.0,0.0,0.0,0.0,0.0,0.0,0.0,0.0,0.0,0
-16.0,-54.0,-28.0,-35.0,-48.0,-23.0,-67.0,-39.0,0.0,0.0,0.0,0.0,0.0,0.0,0.0,0.0,0
5.0,-51.0,-31.0,-39.0,-48.0,-30.0,-89.0,-44.0,0.0,0.0,0.0,0.0,0.0,0.0,0.0,0.0,0
20.0,-49.0,-37.0,-44.0,-41.0,-20.0,-64.0,-41.0,0.0,0.0,0.0,0.0,0.0,0.0,0.0,0.0,0
-6.0,-53.0,-46.0,-46.0,-34.0,-16.0,-54.0,-41.0,0.0,0.0,0.0,0.0,0.0,0.0,0.0,0.0,0
-6.0,-37.0,-40.0,-41.0,-34.0,-28.0,-69.0,-34.0,0.0,0.0,0.0,0.0,0.0,0.0,0.0,0.0,0
-16.0,-20.0,-34.0,-31.0,-34.0,-34.0,-30.0,-25.0,0.0,0.0,0.0,0.0,0.0,0.0,0.0,0.0,0
-35.0,-7.0,-21.0,-13.0,-21.0,-35.0,-9.0,-16.0,0.0,0.0,0.0,0.0,0.0,0.0,0.0,0.0,0
-32.0,-1.0,-7.0,16.0,-6.0,-38.0,-40.0,-15.0,0.0,0.0,0.0,0.0,0.0,0.0,0.0,0.0,0
-25.0,-4.0,-1.0,24.0,0.0,-45.0,-44.0,-15.0,0.0,0.0,0.0,0.0,0.0,0.0,0.0,0.0,0
-17.0,-9.0,-21.0,18.0,-3.0,-48.0,-59.0,-14.0,0.0,0.0,0.0,0.0,0.0,0.0,0.0,0.0,0
3.0,-17.0,-37.0,-5.0,-17.0,-48.0,-87.0,-25.0,0.0,0.0,0.0,0.0,0.0,0.0,0.0,0.0,0
-8.0,-30.0,-38.0,-13.0,-20.0,-53.0,-51.0,-29.0,0.0,0.0,0.0,0.0,0.0,0.0,0.0,0.0,0
-13.0,-43.0,-54.0,-25.0,-29.0,-51.0,-32.0,-23.0,0.0,0.0,0.0,0.0,0.0,0.0,0.0,0.0,0
-24.0,-59.0,-64.0,-39.0,-43.0,-49.0,-28.0,-28.0,0.0,0.0,0.0,0.0,0.0,0.0,0.0,0.0,0
-27.0,-67.0,-69.0,-52.0,-46.0,-47.0,-35.0,-27.0,0.0,0.0,0.0,0.0,0.0,0.0,0.0,0.0,0
-45.0,-75.0,-60.0,-57.0,-49.0,-46.0,-6.0,-20.0,0.0,0.0,0.0,0.0,0.0,0.0,0.0,0.0,0
-66.0,-82.0,-61.0,-65.0,-53.0,-39.0,7.0,-16.0,0.0,0.0,0.0,0.0,0.0,0.0,0.0,0.0,0
-69.0,-95.0,-67.0,-69.0,-45.0,-29.0,-20.0,-27.0,0.0,0.0,0.0,0.0,0.0,0.0,0.0,0.0,0
-51.0,-89.0,-50.0,-47.0,-25.0,-17.0,-42.0,-31.0,0.0,0.0,0.0,0.0,0.0,0.0,0.0,0.0,0
-26.0,-68.0,-35.0,-30.0,-10.0,-20.0,-35.0,-39.0,0.0,0.0,0.0,0.0,0.0,0.0,0.0,0.0,0
-11.0,-50.0,-24.0,-19.0,-13.0,-18.0,-39.0,-38.0,0.0,0.0,0.0,0.0,0.0,0.0,0.0,0.0,0
13.0,-45.0,-24.0,-21.0,-17.0,-7.0,-51.0,-36.0,0.0,0.0,0.0,0.0,0.0,0.0,0.0,0.0,0
5.0,-44.0,-27.0,-42.0,-24.0,-14.0,-26.0,-39.0,0.0,0.0,0.0,0.0,0.0,0.0,0.0,0.0,0
-18.0,-41.0,-32.0,-57.0,-33.0,-25.0,-24.0,-47.0,0.0,0.0,0.0,0.0,0.0,0.0,0.0,0.0,0
-24.0,-25.0,-27.0,-59.0,-43.0,-32.0,-41.0,-51.0,0.0,0.0,0.0,0.0,0.0,0.0,0.0,0.0,0
-50.0,-15.0,-26.0,-64.0,-56.0,-32.0,-6.0,-39.0,0.0,0.0,0.0,0.0,0.0,0.0,0.0,0.0,0
-69.0,-10.0,-28.0,-70.0,-62.0,-40.0,5.0,-35.0,0.0,0.0,0.0,0.0,0.0,0.0,0.0,0.0,0
-61.0,-11.0,-28.0,-62.0,-63.0,-46.0,-30.0,-34.0,0.0,0.0,0.0,0.0,0.0,0.0,0.0,0.0,0
-54.0,-15.0,-33.0,-57.0,-56.0,-44.0,-48.0,-41.0,0.0,0.0,0.0,0.0,0.0,0.0,0.0,0.0,0
-35.0,-13.0,-31.0,-55.0,-51.0,-36.0,-59.0,-49.0,0.0,0.0,0.0,0.0,0.0,0.0,0.0,0.0,0
4.0,-4.0,-21.0,-42.0,-39.0,-39.0,-81.0,-50.0,0.0,0.0,0.0,0.0,0.0,0.0,0.0,0.0,0
2.0,-8.0,-20.0,-27.0,-28.0,-34.0,-45.0,-42.0,0.0,0.0,0.0,0.0,0.0,0.0,0.0,0.0,0
-13.0,-16.0,-18.0,-21.0,-15.0,-32.0,-28.0,-34.0,0.0,0.0,0.0,0.0,0.0,0.0,0.0,0.0,0
-26.0,-26.0,-21.0,-15.0,-6.0,-33.0,-21.0,-33.0,0.0,0.0,0.0,0.0,0.0,0.0,0.0,0.0,0
-34.0,-43.0,-26.0,-3.0,-3.0,-29.0,-38.0,-36.0,0.0,0.0,0.0,0.0,0.0,0.0,0.0,0.0,0
-58.0,-59.0,-37.0,-8.0,-11.0,-20.0,-10.0,-32.0,0.0,0.0,0.0,0.0,0.0,0.0,0.0,0.0,0
-66.0,-65.0,-39.0,-8.0,-11.0,-22.0,-2.0,-28.0,0.0,0.0,0.0,0.0,0.0,0.0,0.0,0.0,0
-47.0,-69.0,-27.0,-1.0,-16.0,-22.0,-36.0,-31.0,0.0,0.0,0.0,0.0,0.0,0.0,0.0,0.0,0
-38.0,-63.0,-17.0,-1.0,-27.0,-19.0,-55.0,-36.0,0.0,0.0,0.0,0.0,0.0,0.0,0.0,0.0,0
-41.0,-46.0,-8.0,12.0,-17.0,-12.0,-41.0,-41.0,0.0,0.0,0.0,0.0,0.0,0.0,0.0,0.0,0
-23.0,-31.0,-6.0,5.0,-9.0,-9.0,-34.0,-41.0,0.0,0.0,0.0,0.0,0.0,0.0,0.0,0.0,0
-3.0,-32.0,-28.0,-23.0,-23.0,-11.0,-70.0,-40.0,0.0,0.0,0.0,0.0,0.0,0.0,0.0,0.0,0
-5.0,-27.0,-38.0,-40.0,-28.0,-16.0,-56.0,-39.0,0.0,0.0,0.0,0.0,0.0,0.0,0.0,0.0,0
-17.0,-16.0,-35.0,-53.0,-38.0,-21.0,-38.0,-39.0,0.0,0.0,0.0,0.0,0.0,0.0,0.0,0.0,0
-14.0,-17.0,-51.0,-80.0,-55.0,-30.0,-54.0,-39.0,0.0,0.0,0.0,0.0,0.0,0.0,0.0,0.0,0
-32.0,-14.0,-56.0,-94.0,-50.0,-37.0,-8.0,-32.0,0.0,0.0,0.0,0.0,0.0,0.0,0.0,0.0,0
-54.0,-5.0,-54.0,-81.0,-53.0,-42.0,-3.0,-25.0,0.0,0.0,0.0,0.0,0.0,0.0,0.0,0.0,0
-46.0,-3.0,-50.0,-74.0,-51.0,-38.0,-34.0,-29.0,0.0,0.0,0.0,0.0,0.0,0.0,0.0,0.0,0
-39.0,-5.0,-43.0,-63.0,-37.0,-40.0,-40.0,-24.0,0.0,0.0,0.0,0.0,0.0,0.0,0.0,0.0,0
-29.0,-1.0,-29.0,-36.0,-24.0,-40.0,-59.0,-24.0,0.0,0.0,0.0,0.0,0.0,0.0,0.0,0.0,0
-9.0,-4.0,-12.0,-12.0,-10.0,-40.0,-90.0,-28.0,0.0,0.0,0.0,0.0,0.0,0.0,0.0,0.0,0
-11.0,6.0,4.0,7.0,-3.0,-29.0,-53.0,-30.0,0.0,0.0,0.0,0.0,0.0,0.0,0.0,0.0,0
-31.0,-3.0,15.0,25.0,-1.0,-21.0,-33.0,-20.0,0.0,0.0,0.0,0.0,0.0,0.0,0.0,0.0,0
-41.0,-8.0,18.0,33.0,3.0,-17.0,-24.0,-19.0,0.0,0.0,0.0,0.0,0.0,0.0,0.0,0.0,0
-34.0,-15.0,11.0,22.0,-1.0,-17.0,-30.0,-20.0,0.0,0.0,0.0,0.0,0.0,0.0,0.0,0.0,0
-52.0,-26.0,-4.0,5.0,-9.0,-23.0,4.0,-23.0,0.0,0.0,0.0,0.0,0.0,0.0,0.0,0.0,0
-75.0,-37.0,-6.0,-12.0,-14.0,-17.0,14.0,-28.0,0.0,0.0,0.0,0.0,0.0,0.0,0.0,0.0,0
-71.0,-57.0,-18.0,-20.0,-20.0,-18.0,-17.0,-34.0,0.0,0.0,0.0,0.0,0.0,0.0,0.0,0.0,0
-41.0,-53.0,-25.0,-32.0,-31.0,-15.0,-55.0,-33.0,0.0,0.0,0.0,0.0,0.0,0.0,0.0,0.0,0
-31.0,-45.0,-29.0,-46.0,-41.0,-24.0,-46.0,-40.0,0.0,0.0,0.0,0.0,0.0,0.0,0.0,0.0,0
-35.0,-49.0,-35.0,-57.0,-45.0,-31.0,-47.0,-40.0,0.0,0.0,0.0,0.0,0.0,0.0,0.0,0.0,0
-16.0,-44.0,-34.0,-61.0,-48.0,-32.0,-55.0,-38.0,0.0,0.0,0.0,0.0,0.0,0.0,0.0,0.0,0
-15.0,-43.0,-37.0,-72.0,-56.0,-38.0,-26.0,-41.0,0.0,0.0,0.0,0.0,0.0,0.0,0.0,0.0,0
-39.0,-51.0,-51.0,-81.0,-56.0,-49.0,-18.0,-39.0,0.0,0.0,0.0,0.0,0.0,0.0,0.0,0.0,0
-55.0,-58.0,-65.0,-86.0,-55.0,-54.0,-39.0,-39.0,0.0,0.0,0.0,0.0,0.0,0.0,0.0,0.0,0
-61.0,-40.0,-65.0,-85.0,-58.0,-58.0,-7.0,-34.0,0.0,0.0,0.0,0.0,0.0,0.0,0.0,0.0,0
-67.0,-28.0,-56.0,-83.0,-63.0,-67.0,-4.0,-28.0,0.0,0.0,0.0,0.0,0.0,0.0,0.0,0.0,0
-63.0,-32.0,-60.0,-84.0,-73.0,-67.0,-44.0,-31.0,0.0,0.0,0.0,0.0,0.0,0.0,0.0,0.0,0
-67.0,-37.0,-61.0,-77.0,-67.0,-63.0,-51.0,-36.0,0.0,0.0,0.0,0.0,0.0,0.0,0.0,0.0,0
-46.0,-24.0,-47.0,-65.0,-62.0,-48.0,-61.0,-27.0,0.0,0.0,0.0,0.0,0.0,0.0,0.0,0.0,0
-13.0,-26.0,-35.0,-50.0,-50.0,-37.0,-84.0,-34.0,0.0,0.0,0.0,0.0,0.0,0.0,0.0,0.0,0
-12.0,-40.0,-25.0,-31.0,-34.0,-35.0,-55.0,-38.0,0.0,0.0,0.0,0.0,0.0,0.0,0.0,0.0,0
-18.0,-51.0,-33.0,-34.0,-31.0,-36.0,-40.0,-34.0,0.0,0.0,0.0,0.0,0.0,0.0,0.0,0.0,0
-34.0,-60.0,-30.0,-33.0,-30.0,-36.0,-34.0,-33.0,0.0,0.0,0.0,0.0,0.0,0.0,0.0,0.0,0
-29.0,-69.0,-23.0,-32.0,-28.0,-34.0,-46.0,-34.0,0.0,0.0,0.0,0.0,0.0,0.0,0.0,0.0,0
-53.0,-89.0,-24.0,-30.0,-25.0,-28.0,-8.0,-29.0,0.0,0.0,0.0,0.0,0.0,0.0,0.0,0.0,0
-83.0,-101.0,-20.0,-27.0,-18.0,-23.0,11.0,-25.0,0.0,0.0,0.0,0.0,0.0,0.0,0.0,0.0,0
-78.0,-86.0,-17.0,-15.0,-15.0,-21.0,-18.0,-20.0,0.0,0.0,0.0,0.0,0.0,0.0,0.0,0.0,0
-50.0,-77.0,-17.0,-10.0,-14.0,-19.0,-49.0,-40.0,0.0,0.0,0.0,0.0,0.0,0.0,0.0,0.0,0
-30.0,-64.0,-18.0,-18.0,-18.0,-21.0,-40.0,-52.0,0.0,0.0,0.0,0.0,0.0,0.0,0.0,0.0,0
-20.0,-46.0,-18.0,-15.0,-20.0,-13.0,-36.0,-47.0,0.0,0.0,0.0,0.0,0.0,0.0,0.0,0.0,0
8.0,-27.0,-21.0,-13.0,-22.0,-15.0,-52.0,-48.0,0.0,0.0,0.0,0.0,0.0,0.0,0.0,0.0,0
7.0,-16.0,-17.0,-9.0,-23.0,-14.0,-33.0,-51.0,0.0,0.0,0.0,0.0,0.0,0.0,0.0,0.0,0
-8.0,-1.0,-15.0,-12.0,-24.0,-13.0,-25.0,-48.0,0.0,0.0,0.0,0.0,0.0,0.0,0.0,0.0,0
-27.0,2.0,-19.0,-12.0,-26.0,-24.0,-34.0,-48.0,0.0,0.0,0.0,0.0,0.0,0.0,0.0,0.0,0
-58.0,-2.0,-16.0,-20.0,-33.0,-27.0,2.0,-46.0,0.0,0.0,0.0,0.0,0.0,0.0,0.0,0.0,0
-76.0,4.0,-13.0,-23.0,-33.0,-26.0,8.0,-42.0,0.0,0.0,0.0,0.0,0.0,0.0,0.0,0.0,0
-67.0,-1.0,-21.0,-31.0,-40.0,-29.0,-30.0,-41.0,0.0,0.0,0.0,0.0,0.0,0.0,0.0,0.0,0
-51.0,-10.0,-26.0,-32.0,-42.0,-36.0,-44.0,-38.0,0.0,0.0,0.0,0.0,0.0,0.0,0.0,0.0,0
-39.0,-15.0,-37.0,-39.0,-32.0,-30.0,-64.0,-32.0,0.0,0.0,0.0,0.0,0.0,0.0,0.0,0.0,0
-17.0,-22.0,-43.0,-36.0,-29.0,-32.0,-96.0,-33.0,0.0,0.0,0.0,0.0,0.0,0.0,0.0,0.0,0
-8.0,-17.0,-14.0,1.0,-23.0,-26.0,-55.0,-25.0,0.0,0.0,0.0,0.0,0.0,0.0,0.0,0.0,0
-19.0,-18.0,5.0,32.0,-10.0,-23.0,-23.0,-24.0,0.0,0.0,0.0,0.0,0.0,0.0,0.0,0.0,0
-33.0,-26.0,6.0,36.0,-7.0,-27.0,-23.0,-23.0,0.0,0.0,0.0,0.0,0.0,0.0,0.0,0.0,0
-32.0,-39.0,-4.0,30.0,-4.0,-30.0,-46.0,-21.0,0.0,0.0,0.0,0.0,0.0,0.0,0.0,0.0,0
-53.0,-50.0,-25.0,7.0,-17.0,-31.0,-17.0,-22.0,0.0,0.0,0.0,0.0,0.0,0.0,0.0,0.0,0
-72.0,-59.0,-35.0,-15.0,-37.0,-37.0,-8.0,-19.0,0.0,0.0,0.0,0.0,0.0,0.0,0.0,0.0,0
-63.0,-59.0,-49.0,-24.0,-45.0,-36.0,-24.0,-19.0,0.0,0.0,0.0,0.0,0.0,0.0,0.0,0.0,0
-32.0,-55.0,-50.0,-27.0,-39.0,-32.0,-56.0,-24.0,0.0,0.0,0.0,0.0,0.0,0.0,0.0,0.0,0
-23.0,-55.0,-40.0,-24.0,-35.0,-34.0,-49.0,-31.0,0.0,0.0,0.0,0.0,0.0,0.0,0.0,0.0,0
-28.0,-53.0,-44.0,-20.0,-29.0,-41.0,-38.0,-29.0,0.0,0.0,0.0,0.0,0.0,0.0,0.0,0.0,0
-18.0,-50.0,-42.0,-18.0,-26.0,-31.0,-52.0,-36.0,0.0,0.0,0.0,0.0,0.0,0.0,0.0,0.0,0
-21.0,-44.0,-36.0,-17.0,-23.0,-26.0,-33.0,-27.0,0.0,0.0,0.0,0.0,0.0,0.0,0.0,0.0,0
-26.0,-40.0,-37.0,-12.0,-12.0,-20.0,-21.0,-26.0,0.0,0.0,0.0,0.0,0.0,0.0,0.0,0.0,0
-24.0,-31.0,-35.0,-7.0,-10.0,-25.0,-40.0,-33.0,0.0,0.0,0.0,0.0,0.0,0.0,0.0,0.0,0
-53.0,-31.0,-40.0,-12.0,-20.0,-33.0,-2.0,-24.0,0.0,0.0,0.0,0.0,0.0,0.0,0.0,0.0,0
-62.0,-28.0,-51.0,-23.0,-30.0,-39.0,10.0,-13.0,0.0,0.0,0.0,0.0,0.0,0.0,0.0,0.0,0
-47.0,-30.0,-47.0,-33.0,-38.0,-32.0,-28.0,-14.0,0.0,0.0,0.0,0.0,0.0,0.0,0.0,0.0,0
-43.0,-36.0,-58.0,-50.0,-42.0,-41.0,-48.0,-11.0,0.0,0.0,0.0,0.0,0.0,0.0,0.0,0.0,0
-36.0,-46.0,-71.0,-75.0,-44.0,-44.0,-67.0,-13.0,0.0,0.0,0.0,0.0,0.0,0.0,0.0,0.0,0
-5.0,-43.0,-65.0,-73.0,-36.0,-49.0,-92.0,-20.0,0.0,0.0,0.0,0.0,0.0,0.0,0.0,0.0,0
-10.0,-52.0,-63.0,-73.0,-41.0,-42.0,-59.0,-19.0,0.0,0.0,0.0,0.0,0.0,0.0,0.0,0.0,0
-20.0,-49.0,-62.0,-74.0,-53.0,-39.0,-42.0,-12.0,0.0,0.0,0.0,0.0,0.0,0.0,0.0,0.0,0
-22.0,-42.0,-49.0,-67.0,-55.0,-43.0,-40.0,-11.0,0.0,0.0,0.0,0.0,0.0,0.0,0.0,0.0,0
-18.0,-49.0,-44.0,-60.0,-55.0,-44.0,-61.0,-12.0,0.0,0.0,0.0,0.0,0.0,0.0,0.0,0.0,0
-32.0,-53.0,-48.0,-61.0,-57.0,-48.0,-32.0,-7.0,0.0,0.0,0.0,0.0,0.0,0.0,0.0,0.0,0
-54.0,-53.0,-36.0,-55.0,-56.0,-46.0,-11.0,-5.0,0.0,0.0,0.0,0.0,0.0,0.0,0.0,0.0,0
-51.0,-48.0,-36.0,-41.0,-54.0,-45.0,-36.0,-22.0,0.0,0.0,0.0,0.0,0.0,0.0,0.0,0.0,0
-17.0,-35.0,-39.0,-28.0,-45.0,-48.0,-67.0,-35.0,0.0,0.0,0.0,0.0,0.0,0.0,0.0,0.0,0
-28.0,-42.0,-38.0,-25.0,-35.0,-29.0,-57.0,-41.0,0.0,0.0,0.0,0.0,0.0,0.0,0.0,0.0,0
-29.0,-35.0,-30.0,-20.0,-24.0,-27.0,-47.0,-46.0,0.0,0.0,0.0,0.0,0.0,0.0,0.0,0.0,0
-24.0,-27.0,-28.0,-16.0,-25.0,-29.0,-59.0,-46.0,0.0,0.0,0.0,0.0,0.0,0.0,0.0,0.0,0
-29.0,-12.0,-13.0,-2.0,-16.0,-31.0,-28.0,-51.0,0.0,0.0,0.0,0.0,0.0,0.0,0.0,0.0,0
-29.0,-8.0,-9.0,8.0,-1.0,-20.0,-32.0,-52.0,0.0,0.0,0.0,0.0,0.0,0.0,0.0,0.0,0
-14.0,-8.0,-11.0,7.0,-6.0,-17.0,-52.0,-53.0,0.0,0.0,0.0,0.0,0.0,0.0,0.0,0.0,0
-35.0,-20.0,-25.0,-12.0,-12.0,-24.0,-10.0,-52.0,0.0,0.0,0.0,0.0,0.0,0.0,0.0,0.0,0
-76.0,-35.0,-36.0,-29.0,-18.0,-35.0,-7.0,-45.0,0.0,0.0,0.0,0.0,0.0,0.0,0.0,0.0,0
-81.0,-45.0,-37.0,-27.0,-20.0,-39.0,-34.0,-41.0,0.0,0.0,0.0,0.0,0.0,0.0,0.0,0.0,0
-84.0,-54.0,-44.0,-22.0,-15.0,-40.0,-42.0,-46.0,0.0,0.0,0.0,0.0,0.0,0.0,0.0,0.0,0
-58.0,-39.0,-34.0,-24.0,-22.0,-36.0,-60.0,-45.0,0.0,0.0,0.0,0.0,0.0,0.0,0.0,0.0,0
-25.0,-23.0,-21.0,-27.0,-35.0,-43.0,-92.0,-38.0,0.0,0.0,0.0,0.0,0.0,0.0,0.0,0.0,0
-28.0,-21.0,-20.0,-43.0,-45.0,-35.0,-67.0,-35.0,0.0,0.0,0.0,0.0,0.0,0.0,0.0,0.0,0
-28.0,-30.0,-36.0,-55.0,-54.0,-30.0,-44.0,-21.0,0.0,0.0,0.0,0.0,0.0,0.0,0.0,0.0,0
-27.0,-24.0,-39.0,-69.0,-71.0,-36.0,-40.0,-21.0,0.0,0.0,0.0,0.0,0.0,0.0,0.0,0.0,0
-26.0,-28.0,-47.0,-77.0,-82.0,-43.0,-59.0,-26.0,0.0,0.0,0.0,0.0,0.0,0.0,0.0,0.0,0
-57.0,-48.0,-46.0,-63.0,-79.0,-44.0,-16.0,-25.0,0.0,0.0,0.0,0.0,0.0,0.0,0.0,0.0,0
-76.0,-53.0,-38.0,-39.0,-70.0,-38.0,-1.0,-26.0,0.0,0.0,0.0,0.0,0.0,0.0,0.0,0.0,0
-60.0,-48.0,-37.0,-30.0,-50.0,-26.0,-28.0,-22.0,0.0,0.0,0.0,0.0,0.0,0.0,0.0,0.0,0
-49.0,-49.0,-37.0,-27.0,-36.0,-27.0,-60.0,-23.0,0.0,0.0,0.0,0.0,0.0,0.0,0.0,0.0,0
-47.0,-32.0,-26.0,-14.0,-24.0,-23.0,-50.0,-23.0,0.0,0.0,0.0,0.0,0.0,0.0,0.0,0.0,0
-24.0,-18.0,-5.0,9.0,-15.0,-17.0,-33.0,-29.0,0.0,0.0,0.0,0.0,0.0,0.0,0.0,0.0,0
-7.0,-35.0,-14.0,12.0,-6.0,-15.0,-54.0,-35.0,0.0,0.0,0.0,0.0,0.0,0.0,0.0,0.0,0
-20.0,-44.0,-15.0,7.0,-8.0,-19.0,-29.0,-35.0,0.0,0.0,0.0,0.0,0.0,0.0,0.0,0.0,0
-29.0,-31.0,1.0,1.0,-15.0,-21.0,-22.0,-36.0,0.0,0.0,0.0,0.0,0.0,0.0,0.0,0.0,0
-20.0,-16.0,8.0,-21.0,-26.0,-27.0,-43.0,-37.0,0.0,0.0,0.0,0.0,0.0,0.0,0.0,0.0,0
-37.0,-13.0,-12.0,-55.0,-36.0,-32.0,1.0,-39.0,0.0,0.0,0.0,0.0,0.0,0.0,0.0,0.0,0
-55.0,-21.0,-24.0,-66.0,-40.0,-36.0,11.0,-40.0,0.0,0.0,0.0,0.0,0.0,0.0,0.0,0.0,0
-39.0,-25.0,-35.0,-72.0,-53.0,-42.0,-40.0,-35.0,0.0,0.0,0.0,0.0,0.0,0.0,0.0,0.0,0
-29.0,-19.0,-40.0,-74.0,-52.0,-44.0,-53.0,-31.0,0.0,0.0,0.0,0.0,0.0,0.0,0.0,0.0,0
-28.0,-28.0,-40.0,-71.0,-50.0,-46.0,-74.0,-35.0,0.0,0.0,0.0,0.0,0.0,0.0,0.0,0.0,0
-8.0,-35.0,-43.0,-77.0,-62.0,-45.0,-96.0,-40.0,0.0,0.0,0.0,0.0,0.0,0.0,0.0,0.0,0
-1.0,-35.0,-45.0,-78.0,-64.0,-50.0,-62.0,-39.0,0.0,0.0,0.0,0.0,0.0,0.0,0.0,0.0,0
-9.0,-30.0,-44.0,-79.0,-74.0,-54.0,-43.0,-42.0,0.0,0.0,0.0,0.0,0.0,0.0,0.0,0.0,0
-24.0,-41.0,-46.0,-63.0,-75.0,-54.0,-39.0,-39.0,0.0,0.0,0.0,0.0,0.0,0.0,0.0,0.0,0
-13.0,-42.0,-38.0,-50.0,-67.0,-52.0,-55.0,-36.0,0.0,0.0,0.0,0.0,0.0,0.0,0.0,0.0,0
-28.0,-43.0,-37.0,-48.0,-74.0,-54.0,-35.0,-25.0,0.0,0.0,0.0,0.0,0.0,0.0,0.0,0.0,0
-63.0,-55.0,-40.0,-39.0,-66.0,-57.0,-18.0,-24.0,0.0,0.0,0.0,0.0,0.0,0.0,0.0,0.0,0
-74.0,-85.0,-50.0,-26.0,-51.0,-54.0,-42.0,-27.0,0.0,0.0,0.0,0.0,0.0,0.0,0.0,0.0,0
-56.0,-110.0,-64.0,-25.0,-26.0,-52.0,-71.0,-27.0,0.0,0.0,0.0,0.0,0.0,0.0,0.0,0.0,0
-35.0,-102.0,-58.0,-18.0,-9.0,-45.0,-50.0,-30.0,0.0,0.0,0.0,0.0,0.0,0.0,0.0,0.0,0
-19.0,-79.0,-46.0,-9.0,2.0,-36.0,-41.0,-24.0,0.0,0.0,0.0,0.0,0.0,0.0,0.0,0.0,0
2.0,-49.0,-33.0,6.0,19.0,-26.0,-60.0,-30.0,0.0,0.0,0.0,0.0,0.0,0.0,0.0,0.0,0
-11.0,-27.0,-9.0,9.0,28.0,-25.0,-35.0,-31.0,0.0,0.0,0.0,0.0,0.0,0.0,0.0,0.0,0
3.0,-2.0,-3.0,13.0,23.0,-19.0,-20.0,-33.0,0.0,0.0,0.0,0.0,0.0,0.0,0.0,0.0,0
31.0,9.0,-3.0,2.0,13.0,-22.0,-48.0,-37.0,0.0,0.0,0.0,0.0,0.0,0.0,0.0,0.0,0
-22.0,-3.0,-6.0,-9.0,-2.0,-29.0,-17.0,-33.0,0.0,0.0,0.0,0.0,0.0,0.0,0.0,0.0,0
-76.0,-8.0,-7.0,-14.0,-8.0,-21.0,2.0,-27.0,0.0,0.0,0.0,0.0,0.0,0.0,0.0,0.0,0
-58.0,-19.0,-8.0,-28.0,-10.0,-19.0,-23.0,-26.0,0.0,0.0,0.0,0.0,0.0,0.0,0.0,0.0,0
-48.0,-31.0,-18.0,-39.0,-15.0,-27.0,-40.0,-36.0,0.0,0.0,0.0,0.0,0.0,0.0,0.0,0.0,0
-27.0,-48.0,-36.0,-54.0,-27.0,-33.0,-60.0,-43.0,0.0,0.0,0.0,0.0,0.0,0.0,0.0,0.0,0
14.0,-61.0,-50.0,-55.0,-33.0,-35.0,-86.0,-52.0,0.0,0.0,0.0,0.0,0.0,0.0,0.0,0.0,0
14.0,-50.0,-45.0,-59.0,-42.0,-37.0,-48.0,-42.0,0.0,0.0,0.0,0.0,0.0,0.0,0.0,0.0,0
-12.0,-28.0,-47.0,-57.0,-54.0,-27.0,-26.0,-34.0,0.0,0.0,0.0,0.0,0.0,0.0,0.0,0.0,0
-32.0,-33.0,-42.0,-53.0,-61.0,-33.0,-26.0,-31.0,0.0,0.0,0.0,0.0,0.0,0.0,0.0,0.0,0
-36.0,-32.0,-38.0,-42.0,-59.0,-36.0,-32.0,-32.0,0.0,0.0,0.0,0.0,0.0,0.0,0.0,0.0,0
-61.0,-37.0,-41.0,-41.0,-57.0,-34.0,-5.0,-31.0,0.0,0.0,0.0,0.0,0.0,0.0,0.0,0.0,0
-90.0,-50.0,-43.0,-36.0,-50.0,-36.0,1.0,-22.0,0.0,0.0,0.0,0.0,0.0,0.0,0.0,0.0,0
-71.0,-41.0,-30.0,-4.0,-40.0,-37.0,-20.0,-27.0,0.0,0.0,0.0,0.0,0.0,0.0,0.0,0.0,0
-39.0,-35.0,-25.0,6.0,-21.0,-30.0,-51.0,-29.0,0.0,0.0,0.0,0.0,0.0,0.0,0.0,0.0,0
-26.0,-42.0,-39.0,-2.0,-24.0,-34.0,-50.0,-31.0,0.0,0.0,0.0,0.0,0.0,0.0,0.0,0.0,0
-21.0,-38.0,-43.0,-12.0,-17.0,-30.0,-43.0,-31.0,0.0,0.0,0.0,0.0,0.0,0.0,0.0,0.0,0
10.0,-17.0,-24.0,-12.0,-8.0,-23.0,-48.0,-32.0,0.0,0.0,0.0,0.0,0.0,0.0,0.0,0.0,0
-5.0,-17.0,-30.0,-33.0,-24.0,-21.0,-20.0,-28.0,0.0,0.0,0.0,0.0,0.0,0.0,0.0,0.0,0
-28.0,-33.0,-48.0,-51.0,-26.0,-22.0,-16.0,-28.0,0.0,0.0,0.0,0.0,0.0,0.0,0.0,0.0,0
-14.0,-34.0,-51.0,-69.0,-29.0,-18.0,-37.0,-38.0,0.0,0.0,0.0,0.0,0.0,0.0,0.0,0.0,0
-30.0,-23.0,-35.0,-79.0,-39.0,-25.0,3.0,-45.0,0.0,0.0,0.0,0.0,0.0,0.0,0.0,0.0,0
-49.0,-26.0,-23.0,-77.0,-58.0,-39.0,8.0,-41.0,0.0,0.0,0.0,0.0,0.0,0.0,0.0,0.0,0
-32.0,-30.0,-21.0,-65.0,-70.0,-38.0,-34.0,-41.0,0.0,0.0,0.0,0.0,0.0,0.0,0.0,0.0,0
-33.0,-41.0,-28.0,-56.0,-60.0,-33.0,-43.0,-38.0,0.0,0.0,0.0,0.0,0.0,0.0,0.0,0.0,0
-33.0,-42.0,-23.0,-51.0,-57.0,-32.0,-53.0,-41.0,0.0,0.0,0.0,0.0,0.0,0.0,0.0,0.0,0
-5.0,-20.0,-4.0,-41.0,-53.0,-29.0,-68.0,-40.0,0.0,0.0,0.0,0.0,0.0,0.0,0.0,0.0,0
-19.0,-21.0,-8.0,-33.0,-49.0,-30.0,-42.0,-37.0,0.0,0.0,0.0,0.0,0.0,0.0,0.0,0.0,0
-36.0,-26.0,-1.0,-12.0,-38.0,-32.0,-32.0,-38.0,0.0,0.0,0.0,0.0,0.0,0.0,0.0,0.0,0
-47.0,-28.0,8.0,-6.0,-33.0,-32.0,-26.0,-32.0,0.0,0.0,0.0,0.0,0.0,0.0,0.0,0.0,0
-47.0,-29.0,-4.0,-6.0,-30.0,-34.0,-36.0,-24.0,0.0,0.0,0.0,0.0,0.0,0.0,0.0,0.0,0
-49.0,-35.0,-16.0,-16.0,-22.0,-33.0,-12.0,-14.0,0.0,0.0,0.0,0.0,0.0,0.0,0.0,0.0,0
-66.0,-53.0,-26.0,-24.0,-17.0,-39.0,0.0,-7.0,0.0,0.0,0.0,0.0,0.0,0.0,0.0,0.0,0
-70.0,-47.0,-22.0,-15.0,-17.0,-30.0,-26.0,-12.0,0.0,0.0,0.0,0.0,0.0,0.0,0.0,0.0,0
-59.0,-45.0,-21.0,-15.0,-11.0,-21.0,-57.0,-28.0,0.0,0.0,0.0,0.0,0.0,0.0,0.0,0.0,0
-41.0,-44.0,-20.0,-26.0,-12.0,-31.0,-40.0,-33.0,0.0,0.0,0.0,0.0,0.0,0.0,0.0,0.0,0
-31.0,-32.0,-17.0,-40.0,-23.0,-36.0,-30.0,-38.0,0.0,0.0,0.0,0.0,0.0,0.0,0.0,0.0,0
-16.0,-20.0,-24.0,-51.0,-33.0,-39.0,-52.0,-46.0,0.0,0.0,0.0,0.0,0.0,0.0,0.0,0.0,0
-4.0,-26.0,-20.0,-47.0,-44.0,-31.0,-40.0,-42.0,0.0,0.0,0.0,0.0,0.0,0.0,0.0,0.0,0
-9.0,-29.0,-19.0,-42.0,-41.0,-39.0,-33.0,-46.0,0.0,0.0,0.0,0.0,0.0,0.0,0.0,0.0,0
-3.0,-22.0,-8.0,-37.0,-41.0,-41.0,-52.0,-47.0,0.0,0.0,0.0,0.0,0.0,0.0,0.0,0.0,0
-28.0,-20.0,-10.0,-33.0,-44.0,-43.0,-11.0,-44.0,0.0,0.0,0.0,0.0,0.0,0.0,0.0,0.0,0
-70.0,-31.0,-3.0,-20.0,-32.0,-37.0,6.0,-35.0,0.0,0.0,0.0,0.0,0.0,0.0,0.0,0.0,0
-76.0,-56.0,-1.0,2.0,-27.0,-27.0,-25.0,-38.0,0.0,0.0,0.0,0.0,0.0,0.0,0.0,0.0,0
-75.0,-76.0,-15.0,10.0,-27.0,-32.0,-33.0,-43.0,0.0,0.0,0.0,0.0,0.0,0.0,0.0,0.0,0
-61.0,-69.0,-11.0,19.0,-25.0,-28.0,-50.0,-45.0,0.0,0.0,0.0,0.0,0.0,0.0,0.0,0.0,0
-44.0,-56.0,-6.0,17.0,-26.0,-21.0,-78.0,-40.0,0.0,0.0,0.0,0.0,0.0,0.0,0.0,0.0,0
-47.0,-56.0,-25.0,17.0,-29.0,-25.0,-46.0,-32.0,0.0,0.0,0.0,0.0,0.0,0.0,0.0,0.0,0
-51.0,-46.0,-30.0,10.0,-28.0,-31.0,-34.0,-29.0,0.0,0.0,0.0,0.0,0.0,0.0,0.0,0.0,0
-45.0,-31.0,-30.0,9.0,-28.0,-33.0,-34.0,-32.0,0.0,0.0,0.0,0.0,0.0,0.0,0.0,0.0,0
-45.0,-27.0,-30.0,3.0,-33.0,-33.0,-42.0,-28.0,0.0,0.0,0.0,0.0,0.0,0.0,0.0,0.0,0
-63.0,-19.0,-37.0,1.0,-36.0,-28.0,-13.0,-20.0,0.0,0.0,0.0,0.0,0.0,0.0,0.0,0.0,0
-80.0,-22.0,-52.0,-5.0,-35.0,-32.0,-8.0,-18.0,0.0,0.0,0.0,0.0,0.0,0.0,0.0,0.0,0
-70.0,-24.0,-50.0,-10.0,-33.0,-35.0,-46.0,-24.0,0.0,0.0,0.0,0.0,0.0,0.0,0.0,0.0,0
-44.0,-19.0,-47.0,-19.0,-36.0,-41.0,-68.0,-25.0,0.0,0.0,0.0,0.0,0.0,0.0,0.0,0.0,0
-31.0,-23.0,-51.0,-37.0,-45.0,-47.0,-57.0,-32.0,0.0,0.0,0.0,0.0,0.0,0.0,0.0,0.0,0
-20.0,-21.0,-49.0,-53.0,-49.0,-47.0,-50.0,-33.0,0.0,0.0,0.0,0.0,0.0,0.0,0.0,0.0,0
-5.0,-29.0,-50.0,-62.0,-50.0,-36.0,-62.0,-38.0,0.0,0.0,0.0,0.0,0.0,0.0,0.0,0.0,0
-12.0,-23.0,-44.0,-68.0,-37.0,-36.0,-35.0,-39.0,0.0,0.0,0.0,0.0,0.0,0.0,0.0,0.0,0
-7.0,-14.0,-42.0,-66.0,-33.0,-33.0,-15.0,-45.0,0.0,0.0,0.0,0.0,0.0,0.0,0.0,0.0,0
0.0,-24.0,-44.0,-69.0,-32.0,-22.0,-30.0,-40.0,0.0,0.0,0.0,0.0,0.0,0.0,0.0,0.0,0
-50.0,-36.0,-41.0,-80.0,-39.0,-22.0,12.0,-41.0,0.0,0.0,0.0,0.0,0.0,0.0,0.0,0.0,0
-95.0,-49.0,-47.0,-90.0,-50.0,-32.0,22.0,-41.0,0.0,0.0,0.0,0.0,0.0,0.0,0.0,0.0,0
-70.0,-47.0,-47.0,-92.0,-50.0,-39.0,-21.0,-40.0,0.0,0.0,0.0,0.0,0.0,0.0,0.0,0.0,0
-40.0,-28.0,-39.0,-88.0,-53.0,-36.0,-37.0,-31.0,0.0,0.0,0.0,0.0,0.0,0.0,0.0,0.0,0
-35.0,-22.0,-42.0,-81.0,-40.0,-33.0,-46.0,-31.0,0.0,0.0,0.0,0.0,0.0,0.0,0.0,0.0,0
-25.0,-36.0,-44.0,-70.0,-39.0,-30.0,-68.0,-32.0,0.0,0.0,0.0,0.0,0.0,0.0,0.0,0.0,0
-16.0,-34.0,-53.0,-65.0,-50.0,-30.0,-40.0,-22.0,0.0,0.0,0.0,0.0,0.0,0.0,0.0,0.0,0
-12.0,-32.0,-52.0,-62.0,-55.0,-27.0,-28.0,-22.0,0.0,0.0,0.0,0.0,0.0,0.0,0.0,0.0,0
-11.0,-41.0,-58.0,-52.0,-55.0,-28.0,-26.0,-20.0,0.0,0.0,0.0,0.0,0.0,0.0,0.0,0.0,0
-14.0,-42.0,-58.0,-43.0,-48.0,-26.0,-34.0,-17.0,0.0,0.0,0.0,0.0,0.0,0.0,0.0,0.0,0
-38.0,-50.0,-56.0,-37.0,-46.0,-30.0,-9.0,-17.0,0.0,0.0,0.0,0.0,0.0,0.0,0.0,0.0,0
-64.0,-45.0,-47.0,-26.0,-35.0,-25.0,6.0,-13.0,0.0,0.0,0.0,0.0,0.0,0.0,0.0,0.0,0
-43.0,-38.0,-48.0,-18.0,-24.0,-23.0,-9.0,-15.0,0.0,0.0,0.0,0.0,0.0,0.0,0.0,0.0,0
-21.0,-48.0,-51.0,-9.0,-8.0,-19.0,-42.0,-26.0,0.0,0.0,0.0,0.0,0.0,0.0,0.0,0.0,0
-4.0,-41.0,-40.0,-5.0,-4.0,-18.0,-28.0,-28.0,0.0,0.0,0.0,0.0,0.0,0.0,0.0,0.0,0
0.0,-31.0,-29.0,-10.0,-1.0,-16.0,-22.0,-32.0,0.0,0.0,0.0,0.0,0.0,0.0,0.0,0.0,0
9.0,-37.0,-17.0,-7.0,-2.0,-16.0,-53.0,-38.0,0.0,0.0,0.0,0.0,0.0,0.0,0.0,0.0,0
-10.0,-37.0,-11.0,-3.0,1.0,-16.0,-19.0,-33.0,0.0,0.0,0.0,0.0,0.0,0.0,0.0,0.0,0
-18.0,-34.0,-6.0,-8.0,7.0,-19.0,-6.0,-32.0,0.0,0.0,0.0,0.0,0.0,0.0,0.0,0.0,0
-9.0,-33.0,-13.0,-23.0,6.0,-21.0,-30.0,-37.0,0.0,0.0,0.0,0.0,0.0,0.0,0.0,0.0,0
-38.0,-35.0,-27.0,-40.0,2.0,-26.0,11.0,-43.0,0.0,0.0,0.0,0.0,0.0,0.0,0.0,0.0,0
-65.0,-37.0,-14.0,-36.0,-1.0,-27.0,23.0,-29.0,0.0,0.0,0.0,0.0,0.0,0.0,0.0,0.0,0
-58.0,-34.0,-10.0,-23.0,-18.0,-32.0,-11.0,-28.0,0.0,0.0,0.0,0.0,0.0,0.0,0.0,0.0,0
-36.0,-34.0,-9.0,-13.0,-22.0,-30.0,-24.0,-33.0,0.0,0.0,0.0,0.0,0.0,0.0,0.0,0.0,0
-5.0,-30.0,-6.0,-5.0,-36.0,-32.0,-49.0,-27.0,0.0,0.0,0.0,0.0,0.0,0.0,0.0,0.0,0
23.0,-10.0,3.0,4.0,-53.0,-41.0,-68.0,-31.0,0.0,0.0,0.0,0.0,0.0,0.0,0.0,0.0,0
4.0,-1.0,2.0,1.0,-50.0,-40.0,-35.0,-35.0,0.0,0.0,0.0,0.0,0.0,0.0,0.0,0.0,0
-20.0,-3.0,-11.0,5.0,-50.0,-38.0,-24.0,-36.0,0.0,0.0,0.0,0.0,0.0,0.0,0.0,0.0,0
-30.0,-18.0,-27.0,-1.0,-50.0,-40.0,-16.0,-31.0,0.0,0.0,0.0,0.0,0.0,0.0,0.0,0.0,0
-25.0,-43.0,-36.0,-9.0,-42.0,-35.0,-30.0,-25.0,0.0,0.0,0.0,0.0,0.0,0.0,0.0,0.0,0
-42.0,-60.0,-51.0,-6.0,-35.0,-38.0,-5.0,-21.0,0.0,0.0,0.0,0.0,0.0,0.0,0.0,0.0,0
-72.0,-82.0,-71.0,-16.0,-43.0,-41.0,-1.0,-17.0,0.0,0.0,0.0,0.0,0.0,0.0,0.0,0.0,0
-75.0,-74.0,-69.0,-31.0,-49.0,-38.0,-25.0,-15.0,0.0,0.0,0.0,0.0,0.0,0.0,0.0,0.0,0
-59.0,-55.0,-57.0,-26.0,-42.0,-32.0,-50.0,-17.0,0.0,0.0,0.0,0.0,0.0,0.0,0.0,0.0,0
-61.0,-46.0,-55.0,-28.0,-43.0,-32.0,-53.0,-29.0,0.0,0.0,0.0,0.0,0.0,0.0,0.0,0.0,0
-31.0,-34.0,-52.0,-32.0,-30.0,-30.0,-64.0,-33.0,0.0,0.0,0.0,0.0,0.0,0.0,0.0,0.0,0
3.0,-20.0,-26.0,-9.0,-9.0,-24.0,-75.0,-38.0,0.0,0.0,0.0,0.0,0.0,0.0,0.0,0.0,0
-2.0,-7.0,-14.0,-10.0,1.0,-22.0,-45.0,-41.0,0.0,0.0,0.0,0.0,0.0,0.0,0.0,0.0,0
-6.0,8.0,-29.0,-36.0,-16.0,-26.0,-24.0,-38.0,0.0,0.0,0.0,0.0,0.0,0.0,0.0,0.0,0
-8.0,10.0,-34.0,-61.0,-33.0,-29.0,-39.0,-38.0,0.0,0.0,0.0,0.0,0.0,0.0,0.0,0.0,0
-56.0,-11.0,-34.0,-81.0,-44.0,-35.0,4.0,-30.0,0.0,0.0,0.0,0.0,0.0,0.0,0.0,0.0,0
-85.0,-32.0,-33.0,-76.0,-40.0,-34.0,22.0,-20.0,0.0,0.0,0.0,0.0,0.0,0.0,0.0,0.0,0
-62.0,-32.0,-32.0,-73.0,-36.0,-29.0,-15.0,-31.0,0.0,0.0,0.0,0.0,0.0,0.0,0.0,0.0,0
-52.0,-43.0,-34.0,-73.0,-40.0,-30.0,-30.0,-34.0,0.0,0.0,0.0,0.0,0.0,0.0,0.0,0.0,0
-28.0,-49.0,-39.0,-56.0,-40.0,-40.0,-56.0,-37.0,0.0,0.0,0.0,0.0,0.0,0.0,0.0,0.0,0
-6.0,-48.0,-40.0,-47.0,-60.0,-48.0,-77.0,-51.0,0.0,0.0,0.0,0.0,0.0,0.0,0.0,0.0,0
-17.0,-42.0,-41.0,-53.0,-72.0,-60.0,-48.0,-61.0,0.0,0.0,0.0,0.0,0.0,0.0,0.0,0.0,0
-21.0,-4.0,-44.0,-52.0,-69.0,-68.0,-35.0,-66.0,0.0,0.0,0.0,0.0,0.0,0.0,0.0,0.0,0
-25.0,15.0,-56.0,-49.0,-73.0,-72.0,-42.0,-78.0,0.0,0.0,0.0,0.0,0.0,0.0,0.0,0.0,0
-18.0,-22.0,-69.0,-46.0,-73.0,-66.0,-52.0,-71.0,0.0,0.0,0.0,0.0,0.0,0.0,0.0,0.0,0
-31.0,-73.0,-83.0,-48.0,-70.0,-59.0,-23.0,-46.0,0.0,0.0,0.0,0.0,0.0,0.0,0.0,0.0,0
-54.0,-89.0,-80.0,-50.0,-64.0,-53.0,-16.0,-38.0,0.0,0.0,0.0,0.0,0.0,0.0,0.0,0.0,0
-73.0,-92.0,-71.0,-44.0,-57.0,-45.0,-29.0,-38.0,0.0,0.0,0.0,0.0,0.0,0.0,0.0,0.0,0
-54.0,-88.0,-62.0,-36.0,-40.0,-28.0,-50.0,-38.0,0.0,0.0,0.0,0.0,0.0,0.0,0.0,0.0,0
-37.0,-69.0,-51.0,-35.0,-27.0,-18.0,-39.0,-34.0,0.0,0.0,0.0,0.0,0.0,0.0,0.0,0.0,0
-41.0,-52.0,-30.0,-38.0,-25.0,-18.0,-40.0,-37.0,0.0,0.0,0.0,0.0,0.0,0.0,0.0,0.0,1
-24.0,-16.0,-22.0,-43.0,-29.0,-22.0,-57.0,-35.0,0.0,0.0,0.0,0.0,0.0,0.0,0.0,0.0,1
-17.0,15.0,-31.0,-68.0,-31.0,-20.0,-27.0,-32.0,0.0,0.0,0.0,0.0,0.0,0.0,0.0,0.0,1
-12.0,25.0,-41.0,-81.0,-33.0,-28.0,-19.0,-40.0,0.0,0.0,0.0,0.0,0.0,0.0,0.0,0.0,1
11.0,59.0,-32.0,-76.0,-32.0,-37.0,-49.0,-48.0,0.0,0.0,0.0,0.0,0.0,0.0,0.0,0.0,1
16.0,101.0,-17.0,-69.0,-41.0,-47.0,-3.0,-44.0,0.0,0.0,0.0,0.0,0.0,0.0,0.0,0.0,1
-27.0,83.0,-11.0,-66.0,-38.0,-47.0,16.0,-37.0,0.0,0.0,0.0,0.0,0.0,0.0,0.0,0.0,1
-55.0,21.0,-16.0,-50.0,-25.0,-38.0,-15.0,-29.0,0.0,0.0,0.0,0.0,0.0,0.0,0.0,0.0,1
-46.0,-36.0,-27.0,-34.0,-15.0,-38.0,-37.0,-27.0,0.0,0.0,0.0,0.0,0.0,0.0,0.0,0.0,1
-28.0,-93.0,-37.0,-21.0,-6.0,-40.0,-54.0,-29.0,0.0,0.0,0.0,0.0,0.0,0.0,0.0,0.0,1
-30.0,-109.0,-33.0,-9.0,-13.0,-32.0,-57.0,-28.0,0.0,0.0,0.0,0.0,0.0,0.0,0.0,0.0,1
-45.0,-89.0,-20.0,0.0,-12.0,-23.0,-30.0,-20.0,0.0,0.0,0.0,0.0,0.0,0.0,0.0,0.0,1
-62.0,-65.0,-9.0,12.0,-2.0,-17.0,-23.0,-4.0,0.0,0.0,0.0,0.0,0.0,0.0,0.0,0.0,1
-105.0,-97.0,-21.0,13.0,-4.0,-14.0,-25.0,-20.0,0.0,0.0,0.0,0.0,0.0,0.0,0.0,0.0,1
-111.0,-114.0,-26.0,18.0,-5.0,-26.0,-41.0,-41.0,0.0,0.0,0.0,0.0,0.0,0.0,0.0,0.0,1
-107.0,-97.0,-18.0,31.0,1.0,-22.0,-9.0,-28.0,0.0,0.0,0.0,0.0,0.0,0.0,0.0,0.0,1
-99.0,-87.0,-18.0,33.0,6.0,-13.0,-2.0,-13.0,0.0,0.0,0.0,0.0,0.0,0.0,0.0,0.0,1
-75.0,-70.0,-16.0,23.0,12.0,-3.0,-30.0,0.0,0.0,0.0,0.0,0.0,0.0,0.0,0.0,0.0,1
-35.0,-36.0,-3.0,20.0,14.0,-7.0,-49.0,-13.0,0.0,0.0,0.0,0.0,0.0,0.0,0.0,0.0,1
-13.0,-3.0,3.0,7.0,-1.0,-11.0,-50.0,-20.0,0.0,0.0,0.0,0.0,0.0,0.0,0.0,0.0,1
26.0,32.0,-4.0,-20.0,-14.0,-29.0,-56.0,-22.0,0.0,0.0,0.0,0.0,0.0,0.0,0.0,0.0,1
79.0,68.0,5.0,-29.0,-12.0,-33.0,-78.0,-30.0,0.0,0.0,0.0,0.0,0.0,0.0,0.0,0.0,1
56.0,31.0,-5.0,-37.0,-16.0,-38.0,-46.0,-38.0,0.0,0.0,0.0,0.0,0.0,0.0,0.0,0.0,1
-32.0,-83.0,-57.0,-45.0,-21.0,-36.0,-32.0,-42.0,0.0,0.0,0.0,0.0,0.0,0.0,0.0,0.0,1
-43.0,-149.0,-85.0,-52.0,-17.0,-42.0,-49.0,-53.0,0.0,0.0,0.0,0.0,0.0,0.0,0.0,0.0,1
-43.0,-119.0,-75.0,-41.0,-23.0,-49.0,1.0,-54.0,0.0,0.0,0.0,0.0,0.0,0.0,0.0,0.0,1
-73.0,-78.0,-59.0,-33.0,-29.0,-43.0,24.0,-48.0,0.0,0.0,0.0,0.0,0.0,0.0,0.0,0.0,1
-70.0,-54.0,-49.0,-22.0,-23.0,-33.0,-15.0,-49.0,0.0,0.0,0.0,0.0,0.0,0.0,0.0,0.0,1
-55.0,-38.0,-27.0,-15.0,-27.0,-39.0,-40.0,-46.0,0.0,0.0,0.0,0.0,0.0,0.0,0.0,0.0,1
-25.0,-3.0,-20.0,-13.0,-35.0,-39.0,-54.0,-53.0,0.0,0.0,0.0,0.0,0.0,0.0,0.0,0.0,1
18.0,43.0,-12.0,-11.0,-37.0,-29.0,-69.0,-64.0,0.0,0.0,0.0,0.0,0.0,0.0,0.0,0.0,1
16.0,33.0,-21.0,-10.0,-37.0,-29.0,-27.0,-51.0,0.0,0.0,0.0,0.0,0.0,0.0,0.0,0.0,1
-22.0,5.0,-26.0,-26.0,-41.0,-26.0,-8.0,-38.0,0.0,0.0,0.0,0.0,0.0,0.0,0.0,0.0,1
-35.0,10.0,-36.0,-51.0,-66.0,-31.0,-5.0,-28.0,0.0,0.0,0.0,0.0,0.0,0.0,0.0,0.0,1
-36.0,-7.0,-50.0,-62.0,-68.0,-38.0,-18.0,-33.0,0.0,0.0,0.0,0.0,0.0,0.0,0.0,0.0,1
-67.0,-42.0,-60.0,-58.0,-56.0,-31.0,1.0,-36.0,0.0,0.0,0.0,0.0,0.0,0.0,0.0,0.0,1
-75.0,-36.0,-54.0,-55.0,-56.0,-25.0,-5.0,-39.0,0.0,0.0,0.0,0.0,0.0,0.0,0.0,0.0,1
-61.0,-14.0,-60.0,-58.0,-60.0,-27.0,-25.0,-35.0,0.0,0.0,0.0,0.0,0.0,0.0,0.0,0.0,1
-23.0,22.0,-55.0,-61.0,-69.0,-18.0,-41.0,-39.0,0.0,0.0,0.0,0.0,0.0,0.0,0.0,0.0,1
-13.0,18.0,-35.0,-45.0,-62.0,-20.0,-34.0,-36.0,0.0,0.0,0.0,0.0,0.0,0.0,0.0,0.0,1
-32.0,-59.0,-31.0,-29.0,-55.0,-21.0,-24.0,-35.0,0.0,0.0,0.0,0.0,0.0,0.0,0.0,0.0,1
-35.0,-114.0,-22.0,-8.0,-36.0,-19.0,-45.0,-41.0,0.0,0.0,0.0,0.0,0.0,0.0,0.0,0.0,1
-62.0,-95.0,0.0,-2.0,-32.0,-18.0,-26.0,-39.0,0.0,0.0,0.0,0.0,0.0,0.0,0.0,0.0,1
-80.0,-51.0,4.0,-12.0,-56.0,-36.0,-12.0,-46.0,0.0,0.0,0.0,0.0,0.0,0.0,0.0,0.0,1
-59.0,-39.0,-7.0,-14.0,-54.0,-41.0,-41.0,-56.0,0.0,0.0,0.0,0.0,0.0,0.0,0.0,0.0,1
-56.0,-41.0,-15.0,-25.0,-42.0,-33.0,-5.0,-46.0,0.0,0.0,0.0,0.0,0.0,0.0,0.0,0.0,1
-83.0,-63.0,-32.0,-42.0,-41.0,-33.0,7.0,-44.0,0.0,0.0,0.0,0.0,0.0,0.0,0.0,0.0,1
-82.0,-73.0,-44.0,-49.0,-40.0,-40.0,-27.0,-39.0,0.0,0.0,0.0,0.0,0.0,0.0,0.0,0.0,1
-75.0,-71.0,-48.0,-47.0,-45.0,-45.0,-46.0,-39.0,0.0,0.0,0.0,0.0,0.0,0.0,0.0,0.0,1
-78.0,-61.0,-49.0,-54.0,-48.0,-49.0,-61.0,-53.0,0.0,0.0,0.0,0.0,0.0,0.0,0.0,0.0,1
-49.0,-53.0,-49.0,-53.0,-57.0,-52.0,-80.0,-51.0,0.0,0.0,0.0,0.0,0.0,0.0,0.0,0.0,1
-51.0,-50.0,-52.0,-57.0,-62.0,-53.0,-47.0,-38.0,0.0,0.0,0.0,0.0,0.0,0.0,0.0,0.0,1
-43.0,-38.0,-51.0,-46.0,-62.0,-42.0,-26.0,-35.0,0.0,0.0,0.0,0.0,0.0,0.0,0.0,0.0,1
-29.0,-22.0,-47.0,-37.0,-54.0,-41.0,-25.0,-30.0,0.0,0.0,0.0,0.0,0.0,0.0,0.0,0.0,1
-29.0,-16.0,-51.0,-32.0,-44.0,-29.0,-47.0,-31.0,0.0,0.0,0.0,0.0,0.0,0.0,0.0,0.0,1
-41.0,-18.0,-47.0,-23.0,-43.0,-26.0,-26.0,-23.0,0.0,0.0,0.0,0.0,0.0,0.0,0.0,0.0,1
-44.0,-8.0,-27.0,-7.0,-29.0,-27.0,-15.0,-11.0,0.0,0.0,0.0,0.0,0.0,0.0,0.0,0.0,1
-32.0,2.0,-5.0,12.0,-6.0,-8.0,-30.0,-11.0,0.0,0.0,0.0,0.0,0.0,0.0,0.0,0.0,1
-27.0,10.0,13.0,32.0,15.0,10.0,-50.0,-22.0,0.0,0.0,0.0,0.0,0.0,0.0,0.0,0.0,1
-32.0,-4.0,2.0,28.0,11.0,11.0,-48.0,-22.0,0.0,0.0,0.0,0.0,0.0,0.0,0.0,0.0,1
-36.0,-17.0,-12.0,5.0,-5.0,-1.0,-56.0,-23.0,0.0,0.0,0.0,0.0,0.0,0.0,0.0,0.0,1
-21.0,-33.0,-9.0,-10.0,-17.0,-13.0,-81.0,-26.0,0.0,0.0,0.0,0.0,0.0,0.0,0.0,0.0,1
-18.0,-35.0,-18.0,-29.0,-20.0,-14.0,-47.0,-14.0,0.0,0.0,0.0,0.0,0.0,0.0,0.0,0.0,1
-29.0,-37.0,-25.0,-37.0,-21.0,-17.0,-26.0,-5.0,0.0,0.0,0.0,0.0,0.0,0.0,0.0,0.0,1
-32.0,-40.0,-15.0,-32.0,-16.0,-16.0,-36.0,-10.0,0.0,0.0,0.0,0.0,0.0,0.0,0.0,0.0,1
-51.0,-41.0,-9.0,-34.0,-22.0,-20.0,7.0,-15.0,0.0,0.0,0.0,0.0,0.0,0.0,0.0,0.0,1
-88.0,-22.0,-17.0,-35.0,-31.0,-24.0,30.0,-13.0,0.0,0.0,0.0,0.0,0.0,0.0,0.0,0.0,1
-69.0,-43.0,-28.0,-31.0,-24.0,-19.0,-4.0,7.0,0.0,0.0,0.0,0.0,0.0,0.0,0.0,0.0,1
-20.0,-55.0,-35.0,-28.0,-23.0,-10.0,-26.0,23.0,0.0,0.0,0.0,0.0,0.0,0.0,0.0,0.0,1
29.0,-8.0,-48.0,-35.0,-35.0,-18.0,-34.0,19.0,0.0,0.0,0.0,0.0,0.0,0.0,0.0,0.0,1
35.0,31.0,-71.0,-48.0,-54.0,-31.0,-58.0,2.0,0.0,0.0,0.0,0.0,0.0,0.0,0.0,0.0,1
-1.0,22.0,-83.0,-60.0,-68.0,-34.0,-47.0,-2.0,0.0,0.0,0.0,0.0,0.0,0.0,0.0,0.0,1
4.0,24.0,-60.0,-64.0,-75.0,-38.0,-42.0,-3.0,0.0,0.0,0.0,0.0,0.0,0.0,0.0,0.0,1
-3.0,4.0,-38.0,-56.0,-72.0,-43.0,-44.0,-3.0,0.0,0.0,0.0,0.0,0.0,0.0,0.0,0.0,1
-44.0,-8.0,-28.0,-47.0,-66.0,-38.0,-50.0,-5.0,0.0,0.0,0.0,0.0,0.0,0.0,0.0,0.0,1
-91.0,-27.0,-29.0,-40.0,-57.0,-32.0,-25.0,-2.0,0.0,0.0,0.0,0.0,0.0,0.0,0.0,0.0,1
-85.0,-43.0,-21.0,-36.0,-57.0,-45.0,-32.0,-36.0,0.0,0.0,0.0,0.0,0.0,0.0,0.0,0.0,1
-83.0,-56.0,-3.0,-33.0,-57.0,-45.0,-73.0,-80.0,0.0,0.0,0.0,0.0,0.0,0.0,0.0,0.0,1
-71.0,-77.0,-27.0,-44.0,-55.0,-35.0,-88.0,-122.0,0.0,0.0,0.0,0.0,0.0,0.0,0.0,0.0,1
-37.0,-85.0,-60.0,-55.0,-50.0,-41.0,-82.0,-165.0,0.0,0.0,0.0,0.0,0.0,0.0,0.0,0.0,1
-37.0,-79.0,-52.0,-37.0,-35.0,-37.0,-68.0,-137.0,0.0,0.0,0.0,0.0,0.0,0.0,0.0,0.0,1
-55.0,-79.0,-30.0,-22.0,-18.0,-29.0,-65.0,-54.0,0.0,0.0,0.0,0.0,0.0,0.0,0.0,0.0,1
-60.0,11.0,-19.0,-7.0,12.0,-6.0,-21.0,23.0,0.0,0.0,0.0,0.0,0.0,0.0,0.0,0.0,1
-20.0,96.0,-1.0,5.0,33.0,3.0,28.0,58.0,0.0,0.0,0.0,0.0,0.0,0.0,0.0,0.0,1
26.0,119.0,35.0,32.0,50.0,7.0,18.0,43.0,0.0,0.0,0.0,0.0,0.0,0.0,0.0,0.0,1
27.0,89.0,51.0,38.0,48.0,13.0,60.0,11.0,0.0,0.0,0.0,0.0,0.0,0.0,0.0,0.0,1
55.0,17.0,25.0,15.0,29.0,-8.0,58.0,-10.0,0.0,0.0,0.0,0.0,0.0,0.0,0.0,0.0,1
112.0,-42.0,-4.0,-3.0,2.0,-35.0,0.0,-3.0,0.0,0.0,0.0,0.0,0.0,0.0,0.0,0.0,1
87.0,-102.0,-10.0,-19.0,-31.0,-64.0,-57.0,-31.0,0.0,0.0,0.0,0.0,0.0,0.0,0.0,0.0,1
-170.0,-377.0,-70.0,-72.0,-103.0,-124.0,-119.0,-122.0,0.0,0.0,0.0,0.0,0.0,0.0,0.0,0.0,1
-455.0,-594.0,-168.0,-156.0,-198.0,-183.0,-201.0,-222.0,0.0,0.0,0.0,0.0,0.0,0.0,0.0,0.0,1
-477.0,-491.0,-183.0,-163.0,-210.0,-170.0,-166.0,-266.0,0.0,0.0,0.0,0.0,0.0,0.0,0.0,0.0,1
-356.0,-345.0,-178.0,-112.0,-141.0,-100.0,-100.0,-282.0,0.0,0.0,0.0,0.0,0.0,0.0,0.0,0.0,1
-149.0,-112.0,-104.0,-56.0,-77.0,-52.0,-93.0,-281.0,0.0,0.0,0.0,0.0,0.0,0.0,0.0,0.0,1
8.0,75.0,-49.0,-17.0,-25.0,-7.0,-73.0,-173.0,0.0,0.0,0.0,0.0,0.0,0.0,0.0,0.0,1
99.0,110.0,-60.0,-32.0,-18.0,-8.0,-18.0,-75.0,0.0,0.0,0.0,0.0,0.0,0.0,0.0,0.0,1
147.0,166.0,-82.0,-68.0,-33.0,-30.0,3.0,10.0,0.0,0.0,0.0,0.0,0.0,0.0,0.0,0.0,1
132.0,153.0,-81.0,-60.0,-24.0,-13.0,50.0,117.0,0.0,0.0,0.0,0.0,0.0,0.0,0.0,0.0,1
57.0,19.0,-54.0,-22.0,32.0,38.0,100.0,259.0,0.0,0.0,0.0,0.0,0.0,0.0,0.0,0.0,1
-33.0,-62.0,-10.0,34.0,87.0,98.0,149.0,449.0,0.0,0.0,0.0,0.0,0.0,0.0,0.0,0.0,1
-30.0,3.0,33.0,55.0,99.0,89.0,94.0,528.0,0.0,0.0,0.0,0.0,0.0,0.0,0.0,0.0,1
-27.0,80.0,40.0,21.0,49.0,20.0,-54.0,456.0,0.0,0.0,0.0,0.0,0.0,0.0,0.0,0.0,1
-21.0,150.0,34.0,-28.0,-14.0,-50.0,-128.0,251.0,0.0,0.0,0.0,0.0,0.0,0.0,0.0,0.0,1
20.0,243.0,19.0,-61.0,-47.0,-95.0,-76.0,-134.0,0.0,0.0,0.0,0.0,0.0,0.0,0.0,0.0,1
87.0,284.0,52.0,-43.0,-20.0,-91.0,-240.0,-497.0,0.0,0.0,0.0,0.0,0.0,0.0,0.0,0.0,1
28.0,218.0,68.0,-35.0,-19.0,-53.0,-371.0,-496.0,0.0,0.0,0.0,0.0,0.0,0.0,0.0,0.0,1
-144.0,-48.0,-24.0,-113.0,-99.0,-100.0,-376.0,-412.0,0.0,0.0,0.0,0.0,0.0,0.0,0.0,0.0,1
-100.0,-224.0,-130.0,-179.0,-160.0,-141.0,-284.0,-387.0,0.0,0.0,0.0,0.0,0.0,0.0,0.0,0.0,1
121.0,-139.0,-122.0,-147.0,-132.0,-80.0,-125.0,-286.0,0.0,0.0,0.0,0.0,0.0,0.0,0.0,0.0,1
249.0,-75.0,-64.0,-74.0,-50.0,19.0,217.0,-48.0,0.0,0.0,0.0,0.0,0.0,0.0,0.0,0.0,1
227.0,-109.0,-61.0,-56.0,-46.0,25.0,320.0,55.0,0.0,0.0,0.0,0.0,0.0,0.0,0.0,0.0,1
153.0,-63.0,-52.0,-44.0,-71.0,-38.0,373.0,140.0,0.0,0.0,0.0,0.0,0.0,0.0,0.0,0.0,1
112.0,229.0,-109.0,-56.0,-89.0,-39.0,449.0,262.0,0.0,0.0,0.0,0.0,0.0,0.0,0.0,0.0,1
211.0,619.0,-125.0,-104.0,-83.0,22.0,347.0,428.0,0.0,0.0,0.0,0.0,0.0,0.0,0.0,0.0,1
276.0,563.0,-41.0,-120.0,-95.0,18.0,221.0,614.0,0.0,0.0,0.0,0.0,0.0,0.0,0.0,0.0,1
168.0,237.0,77.0,-42.0,-77.0,-17.0,191.0,573.0,0.0,0.0,0.0,0.0,0.0,0.0,0.0,0.0,1
-5.0,-76.0,211.0,83.0,27.0,29.0,129.0,298.0,0.0,0.0,0.0,0.0,0.0,0.0,0.0,0.0,1
-39.0,-198.0,410.0,261.0,156.0,104.0,92.0,14.0,0.0,0.0,0.0,0.0,0.0,0.0,0.0,0.0,1
-173.0,-403.0,572.0,437.0,214.0,110.0,98.0,-13.0,0.0,0.0,0.0,0.0,0.0,0.0,0.0,0.0,1
-740.0,-1008.0,475.0,410.0,127.0,-3.0,-3.0,-122.0,0.0,0.0,0.0,0.0,0.0,0.0,0.0,0.0,1
-985.0,-1072.0,101.0,158.0,-23.0,-119.0,-237.0,-321.0,0.0,0.0,0.0,0.0,0.0,0.0,0.0,0.0,1
-596.0,-463.0,-130.0,-45.0,-87.0,-108.0,-533.0,-493.0,0.0,0.0,0.0,0.0,0.0,0.0,0.0,0.0,1
-407.0,-152.0,-232.0,-131.0,-43.0,-40.0,-458.0,-713.0,0.0,0.0,0.0,0.0,0.0,0.0,0.0,0.0,1
-347.0,-92.0,-274.0,-162.0,-6.0,65.0,28.0,-1028.0,0.0,0.0,0.0,0.0,0.0,0.0,0.0,0.0,1
-115.0,17.0,-229.0,-145.0,14.0,130.0,122.0,-996.0,0.0,0.0,0.0,0.0,0.0,0.0,0.0,0.0,1
44.0,128.0,-247.0,-168.0,-17.0,119.0,58.0,-657.0,0.0,0.0,0.0,0.0,0.0,0.0,0.0,0.0,1
51.0,135.0,-276.0,-213.0,-81.0,56.0,-136.0,-294.0,0.0,0.0,0.0,0.0,0.0,0.0,0.0,0.0,1
10.0,58.0,-318.0,-259.0,-145.0,-81.0,-268.0,-84.0,0.0,0.0,0.0,0.0,0.0,0.0,0.0,0.0,1
47.0,17.0,-386.0,-279.0,-178.0,-192.0,-418.0,-35.0,0.0,0.0,0.0,0.0,0.0,0.0,0.0,0.0,1
198.0,70.0,-397.0,-288.0,-203.0,-260.0,-444.0,-5.0,0.0,0.0,0.0,0.0,0.0,0.0,0.0,0.0,1
275.0,41.0,-461.0,-358.0,-251.0,-252.0,-377.0,15.0,0.0,0.0,0.0,0.0,0.0,0.0,0.0,0.0,1
225.0,-132.0,-589.0,-416.0,-267.0,-200.0,-245.0,226.0,0.0,0.0,0.0,0.0,0.0,0.0,0.0,0.0,1
331.0,-94.0,-509.0,-247.0,-95.0,21.0,56.0,543.0,0.0,0.0,0.0,0.0,0.0,0.0,0.0,0.0,1
473.0,163.0,-171.0,12.0,84.0,193.0,228.0,833.0,0.0,0.0,0.0,0.0,0.0,0.0,0.0,0.0,1
419.0,352.0,294.0,247.0,193.0,232.0,185.0,1010.0,0.0,0.0,0.0,0.0,0.0,0.0,0.0,0.0,1
287.0,436.0,780.0,507.0,291.0,221.0,174.0,1075.0,0.0,0.0,0.0,0.0,0.0,0.0,0.0,0.0,1
46.0,274.0,872.0,570.0,247.0,35.0,103.0,879.0,0.0,0.0,0.0,0.0,0.0,0.0,0.0,0.0,1
-107.0,74.0,730.0,508.0,128.0,-156.0,-125.0,505.0,0.0,0.0,0.0,0.0,0.0,0.0,0.0,0.0,1
-276.0,44.0,694.0,485.0,62.0,-231.0,-235.0,-23.0,0.0,0.0,0.0,0.0,0.0,0.0,0.0,0.0,1
-248.0,92.0,359.0,243.0,-34.0,-240.0,-99.0,-360.0,0.0,0.0,0.0,0.0,0.0,0.0,0.0,0.0,1
-70.0,90.0,50.0,40.0,-42.0,-148.0,27.0,-353.0,0.0,0.0,0.0,0.0,0.0,0.0,0.0,0.0,1
-253.0,-27.0,-143.0,-105.0,-45.0,-97.0,-27.0,-460.0,0.0,0.0,0.0,0.0,0.0,0.0,0.0,0.0,1
-378.0,-116.0,-237.0,-234.0,-90.0,-113.0,67.0,-602.0,0.0,0.0,0.0,0.0,0.0,0.0,0.0,0.0,1
-376.0,-264.0,-367.0,-393.0,-238.0,-179.0,75.0,-751.0,0.0,0.0,0.0,0.0,0.0,0.0,0.0,0.0,1
-351.0,-386.0,-512.0,-447.0,-298.0,-181.0,-207.0,-794.0,0.0,0.0,0.0,0.0,0.0,0.0,0.0,0.0,1
-171.0,-263.0,-508.0,-330.0,-118.0,40.0,-43.0,-333.0,0.0,0.0,0.0,0.0,0.0,0.0,0.0,0.0,1
-36.0,-193.0,-459.0,-359.0,-116.0,70.0,107.0,53.0,0.0,0.0,0.0,0.0,0.0,0.0,0.0,0.0,1
88.0,-186.0,-324.0,-375.0,-182.0,102.0,433.0,419.0,0.0,0.0,0.0,0.0,0.0,0.0,0.0,0.0,1
362.0,35.0,-23.0,-145.0,-47.0,258.0,560.0,675.0,0.0,0.0,0.0,0.0,0.0,0.0,0.0,0.0,1
510.0,222.0,197.0,23.0,61.0,292.0,395.0,463.0,0.0,0.0,0.0,0.0,0.0,0.0,0.0,0.0,1
195.0,35.0,130.0,-56.0,-83.0,40.0,-59.0,-83.0,0.0,0.0,0.0,0.0,0.0,0.0,0.0,0.0,1
-236.0,-289.0,-304.0,-263.0,-304.0,-316.0,-530.0,-705.0,0.0,0.0,0.0,0.0,0.0,0.0,0.0,0.0,1
-478.0,-327.0,-576.0,-355.0,-329.0,-463.0,-681.0,-595.0,0.0,0.0,0.0,0.0,0.0,0.0,0.0,0.0,1
-473.0,-176.0,-570.0,-290.0,-214.0,-369.0,-550.0,-465.0,0.0,0.0,0.0,0.0,0.0,0.0,0.0,0.0,1
-379.0,-189.0,-576.0,-251.0,-116.0,-334.0,-430.0,-771.0,0.0,0.0,0.0,0.0,0.0,0.0,0.0,0.0,1
-272.0,-179.0,-379.0,-130.0,-18.0,-217.0,-176.0,-726.0,0.0,0.0,0.0,0.0,0.0,0.0,0.0,0.0,1
46.0,-18.0,11.0,77.0,93.0,87.0,310.0,9.0,0.0,0.0,0.0,0.0,0.0,0.0,0.0,0.0,1
144.0,36.0,165.0,210.0,158.0,274.0,557.0,457.0,0.0,0.0,0.0,0.0,0.0,0.0,0.0,0.0,1
-2.0,73.0,353.0,411.0,276.0,357.0,512.0,261.0,0.0,0.0,0.0,0.0,0.0,0.0,0.0,0.0,1
51.0,123.0,552.0,419.0,256.0,307.0,379.0,222.0,0.0,0.0,0.0,0.0,0.0,0.0,0.0,0.0,1
-50.0,-10.0,457.0,266.0,164.0,180.0,172.0,310.0,0.0,0.0,0.0,0.0,0.0,0.0,0.0,0.0,1
24.0,-27.0,423.0,239.0,163.0,69.0,-106.0,190.0,0.0,0.0,0.0,0.0,0.0,0.0,0.0,0.0,1
63.0,-6.0,496.0,245.0,95.0,-142.0,-457.0,-117.0,0.0,0.0,0.0,0.0,0.0,0.0,0.0,0.0,1
130.0,-68.0,483.0,236.0,4.0,-296.0,-551.0,-62.0,0.0,0.0,0.0,0.0,0.0,0.0,0.0,0.0,1
188.0,-92.0,350.0,153.0,-107.0,-412.0,-422.0,41.0,0.0,0.0,0.0,0.0,0.0,0.0,0.0,0.0,1
-220.0,-120.0,69.0,-4.0,-139.0,-288.0,-172.0,56.0,0.0,0.0,0.0,0.0,0.0,0.0,0.0,0.0,1
-360.0,-9.0,-164.0,-62.0,39.0,165.0,311.0,244.0,0.0,0.0,0.0,0.0,0.0,0.0,0.0,0.0,1
82.0,136.0,-331.0,-116.0,87.0,307.0,427.0,346.0,0.0,0.0,0.0,0.0,0.0,0.0,0.0,0.0,1
552.0,323.0,-479.0,-195.0,35.0,214.0,243.0,339.0,0.0,0.0,0.0,0.0,0.0,0.0,0.0,0.0,1
637.0,438.0,-288.0,-61.0,137.0,275.0,148.0,353.0,0.0,0.0,0.0,0.0,0.0,0.0,0.0,0.0,1
567.0,406.0,27.0,111.0,267.0,383.0,165.0,494.0,0.0,0.0,0.0,0.0,0.0,0.0,0.0,0.0,1
174.0,117.0,21.0,-1.0,115.0,161.0,20.0,597.0,0.0,0.0,0.0,0.0,0.0,0.0,0.0,0.0,1
-238.0,-43.0,-191.0,-138.0,-28.0,-287.0,-473.0,309.0,0.0,0.0,0.0,0.0,0.0,0.0,0.0,0.0,1
-118.0,115.0,-327.0,-160.0,-43.0,-468.0,-916.0,-559.0,0.0,0.0,0.0,0.0,0.0,0.0,0.0,0.0,1
-121.0,-108.0,-659.0,-391.0,-229.0,-494.0,-1022.0,-1308.0,0.0,0.0,0.0,0.0,0.0,0.0,0.0,0.0,1
-505.0,-488.0,-752.0,-601.0,-414.0,-454.0,-757.0,-1181.0,0.0,0.0,0.0,0.0,0.0,0.0,0.0,0.0,1
-515.0,-370.0,-297.0,-375.0,-305.0,-250.0,-180.0,-529.0,0.0,0.0,0.0,0.0,0.0,0.0,0.0,0.0,1
-231.0,-258.0,75.0,-2.0,-90.0,-152.0,114.0,-228.0,0.0,0.0,0.0,0.0,0.0,0.0,0.0,0.0,1
48.0,-317.0,362.0,412.0,60.0,-173.0,88.0,-60.0,0.0,0.0,0.0,0.0,0.0,0.0,0.0,0.0,1
324.0,-181.0,826.0,711.0,161.0,80.0,191.0,247.0,0.0,0.0,0.0,0.0,0.0,0.0,0.0,0.0,1
196.0,-96.0,606.0,328.0,76.0,419.0,643.0,671.0,0.0,0.0,0.0,0.0,0.0,0.0,0.0,0.0,1
294.0,-179.0,-335.0,-242.0,-42.0,708.0,1147.0,796.0,0.0,0.0,0.0,0.0,0.0,0.0,0.0,0.0,1
505.0,-30.0,-915.0,-447.0,-45.0,715.0,1308.0,737.0,0.0,0.0,0.0,0.0,0.0,0.0,0.0,0.0,1
161.0,11.0,-850.0,-450.0,-39.0,525.0,1066.0,129.0,0.0,0.0,0.0,0.0,0.0,0.0,0.0,0.0,1
-595.0,-121.0,-554.0,-459.0,-74.0,264.0,546.0,-511.0,0.0,0.0,0.0,0.0,0.0,0.0,0.0,0.0,1
-540.0,162.0,164.0,-224.0,-88.0,8.0,102.0,-422.0,0.0,0.0,0.0,0.0,0.0,0.0,0.0,0.0,1
-290.0,408.0,1098.0,90.0,-277.0,-462.0,-631.0,-619.0,0.0,0.0,0.0,0.0,0.0,0.0,0.0,0.0,1
-643.0,221.0,1662.0,373.0,-334.0,-856.0,-1163.0,-629.0,0.0,0.0,0.0,0.0,0.0,0.0,0.0,0.0,1
-921.0,35.0,1490.0,383.0,-279.0,-1000.0,-1289.0,-369.0,0.0,0.0,0.0,0.0,0.0,0.0,0.0,0.0,1
-793.0,-70.0,955.0,315.0,-112.0,-799.0,-1317.0,-526.0,0.0,0.0,0.0,0.0,0.0,0.0,0.0,0.0,1
-306.0,-317.0,158.0,203.0,-37.0,-633.0,-1164.0,-673.0,0.0,0.0,0.0,0.0,0.0,0.0,0.0,0.0,1
-137.0,-318.0,-283.0,48.0,-143.0,-716.0,-1016.0,-728.0,0.0,0.0,0.0,0.0,0.0,0.0,0.0,0.0,1
155.0,34.0,-567.0,-181.0,-248.0,-616.0,-649.0,-406.0,0.0,0.0,0.0,0.0,0.0,0.0,0.0,0.0,1
510.0,276.0,-1307.0,-585.0,-353.0,-348.0,-206.0,148.0,0.0,0.0,0.0,0.0,0.0,0.0,0.0,0.0,1
259.0,137.0,-1687.0,-897.0,-368.0,-105.0,38.0,272.0,0.0,0.0,0.0,0.0,0.0,0.0,0.0,0.0,1
160.0,-14.0,-1263.0,-706.0,-66.0,205.0,185.0,31.0,0.0,0.0,0.0,0.0,0.0,0.0,0.0,0.0,1
361.0,-121.0,-719.0,-252.0,288.0,574.0,510.0,243.0,0.0,0.0,0.0,0.0,0.0,0.0,0.0,0.0,1
328.0,-272.0,-335.0,67.0,443.0,833.0,917.0,536.0,0.0,0.0,0.0,0.0,0.0,0.0,0.0,0.0,1
-34.0,-501.0,318.0,475.0,515.0,901.0,1157.0,622.0,0.0,0.0,0.0,0.0,0.0,0.0,0.0,0.0,1
14.0,-376.0,513.0,741.0,605.0,1146.0,1500.0,867.0,0.0,0.0,0.0,0.0,0.0,0.0,0.0,0.0,1
223.0,-39.0,-211.0,290.0,334.0,1005.0,1469.0,686.0,0.0,0.0,0.0,0.0,0.0,0.0,0.0,0.0,1
-169.0,162.0,-584.0,-416.0,-176.0,336.0,975.0,337.0,0.0,0.0,0.0,0.0,0.0,0.0,0.0,0.0,1
88.0,279.0,-154.0,-537.0,-363.0,-135.0,407.0,491.0,0.0,0.0,0.0,0.0,0.0,0.0,0.0,0.0,1
373.0,150.0,454.0,-225.0,-225.0,-413.0,-163.0,467.0,0.0,0.0,0.0,0.0,0.0,0.0,0.0,0.0,1
8.0,-181.0,862.0,42.0,-116.0,-532.0,-465.0,64.0,0.0,0.0,0.0,0.0,0.0,0.0,0.0,0.0,1
-420.0,-200.0,1930.0,813.0,247.0,-186.0,-465.0,-640.0,0.0,0.0,0.0,0.0,0.0,0.0,0.0,0.0,1
-765.0,-209.0,2135.0,1180.0,347.0,-148.0,-741.0,-1070.0,0.0,0.0,0.0,0.0,0.0,0.0,0.0,0.0,1
-442.0,-145.0,886.0,780.0,171.0,-217.0,-816.0,-591.0,0.0,0.0,0.0,0.0,0.0,0.0,0.0,0.0,1
176.0,13.0,-336.0,202.0,29.0,-213.0,-658.0,-130.0,0.0,0.0,0.0,0.0,0.0,0.0,0.0,0.0,1
423.0,125.0,-1016.0,-210.0,-66.0,-51.0,-260.0,254.0,0.0,0.0,0.0,0.0,0.0,0.0,0.0,0.0,1
393.0,241.0,-924.0,-132.0,-17.0,77.0,-20.0,589.0,0.0,0.0,0.0,0.0,0.0,0.0,0.0,0.0,1
457.0,210.0,-774.0,-222.0,-124.0,-124.0,-94.0,704.0,0.0,0.0,0.0,0.0,0.0,0.0,0.0,0.0,1
518.0,214.0,-980.0,-503.0,-258.0,-328.0,-238.0,444.0,0.0,0.0,0.0,0.0,0.0,0.0,0.0,0.0,1
110.0,61.0,-1049.0,-618.0,-291.0,-360.0,-274.0,50.0,0.0,0.0,0.0,0.0,0.0,0.0,0.0,0.0,1
214.0,9.0,-657.0,-521.0,-201.0,-122.0,65.0,76.0,0.0,0.0,0.0,0.0,0.0,0.0,0.0,0.0,1
447.0,124.0,62.0,-214.0,40.0,328.0,336.0,-198.0,0.0,0.0,0.0,0.0,0.0,0.0,0.0,0.0,1
78.0,51.0,545.0,-9.0,143.0,454.0,197.0,-884.0,0.0,0.0,0.0,0.0,0.0,0.0,0.0,0.0,1
-549.0,-146.0,497.0,-26.0,30.0,281.0,-145.0,-1185.0,0.0,0.0,0.0,0.0,0.0,0.0,0.0,0.0,1
-737.0,-199.0,65.0,-157.0,-41.0,116.0,-360.0,-959.0,0.0,0.0,0.0,0.0,0.0,0.0,0.0,0.0,1
-584.0,-229.0,-422.0,-416.0,-270.0,-424.0,-623.0,-738.0,0.0,0.0,0.0,0.0,0.0,0.0,0.0,0.0,1
-718.0,-330.0,-726.0,-562.0,-470.0,-838.0,-770.0,-886.0,0.0,0.0,0.0,0.0,0.0,0.0,0.0,0.0,1
-613.0,-127.0,-550.0,-389.0,-363.0,-747.0,-418.0,-354.0,0.0,0.0,0.0,0.0,0.0,0.0,0.0,0.0,1
114.0,170.0,-51.0,-73.0,-202.0,-501.0,-27.0,342.0,0.0,0.0,0.0,0.0,0.0,0.0,0.0,0.0,1
485.0,139.0,-56.0,83.0,-13.0,-257.0,298.0,744.0,0.0,0.0,0.0,0.0,0.0,0.0,0.0,0.0,1
427.0,210.0,-342.0,-5.0,116.0,59.0,642.0,934.0,0.0,0.0,0.0,0.0,0.0,0.0,0.0,0.0,1
354.0,287.0,-547.0,-309.0,-11.0,210.0,713.0,752.0,0.0,0.0,0.0,0.0,0.0,0.0,0.0,0.0,1
142.0,-54.0,-924.0,-550.0,-106.0,219.0,360.0,138.0,0.0,0.0,0.0,0.0,0.0,0.0,0.0,0.0,1
-61.0,-378.0,-799.0,-565.0,-213.0,108.0,-123.0,-216.0,0.0,0.0,0.0,0.0,0.0,0.0,0.0,0.0,1
-245.0,-590.0,-245.0,-293.0,-268.0,-70.0,-283.0,-3.0,0.0,0.0,0.0,0.0,0.0,0.0,0.0,0.0,1
-242.0,-670.0,-121.0,130.0,27.0,59.0,-103.0,442.0,0.0,0.0,0.0,0.0,0.0,0.0,0.0,0.0,1
-179.0,-397.0,405.0,584.0,343.0,309.0,197.0,797.0,0.0,0.0,0.0,0.0,0.0,0.0,0.0,0.0,1
-146.0,149.0,1083.0,769.0,322.0,341.0,281.0,661.0,0.0,0.0,0.0,0.0,0.0,0.0,0.0,0.0,1
150.0,284.0,916.0,420.0,151.0,252.0,20.0,23.0,0.0,0.0,0.0,0.0,0.0,0.0,0.0,0.0,1
215.0,123.0,852.0,183.0,44.0,133.0,-414.0,-858.0,0.0,0.0,0.0,0.0,0.0,0.0,0.0,0.0,1
50.0,-3.0,1160.0,201.0,-59.0,-159.0,-782.0,-1326.0,0.0,0.0,0.0,0.0,0.0,0.0,0.0,0.0,1
-365.0,-179.0,1100.0,195.0,-148.0,-305.0,-719.0,-1026.0,0.0,0.0,0.0,0.0,0.0,0.0,0.0,0.0,1
-509.0,-326.0,556.0,136.0,-118.0,-208.0,-437.0,-809.0,0.0,0.0,0.0,0.0,0.0,0.0,0.0,0.0,1
-427.0,-43.0,299.0,168.0,55.0,-13.0,-135.0,-577.0,0.0,0.0,0.0,0.0,0.0,0.0,0.0,0.0,1
-31.0,484.0,545.0,415.0,388.0,434.0,541.0,179.0,0.0,0.0,0.0,0.0,0.0,0.0,0.0,0.0,1
227.0,621.0,306.0,389.0,365.0,534.0,952.0,734.0,0.0,0.0,0.0,0.0,0.0,0.0,0.0,0.0,1
278.0,362.0,-784.0,123.0,323.0,501.0,775.0,353.0,0.0,0.0,0.0,0.0,0.0,0.0,0.0,0.0,1
362.0,268.0,-987.0,82.0,446.0,552.0,641.0,533.0,0.0,0.0,0.0,0.0,0.0,0.0,0.0,0.0,1
437.0,133.0,-622.0,-77.0,144.0,204.0,259.0,371.0,0.0,0.0,0.0,0.0,0.0,0.0,0.0,0.0,1
417.0,-95.0,-329.0,-290.0,-349.0,-319.0,-269.0,-335.0,0.0,0.0,0.0,0.0,0.0,0.0,0.0,0.0,1
159.0,-296.0,-36.0,-295.0,-589.0,-788.0,-548.0,-401.0,0.0,0.0,0.0,0.0,0.0,0.0,0.0,0.0,1
-645.0,-300.0,254.0,-37.0,-420.0,-819.0,-319.0,345.0,0.0,0.0,0.0,0.0,0.0,0.0,0.0,0.0,1
-958.0,-248.0,-220.0,-149.0,-267.0,-589.0,-230.0,233.0,0.0,0.0,0.0,0.0,0.0,0.0,0.0,0.0,1
-738.0,128.0,-570.0,-274.0,-60.0,-187.0,-200.0,158.0,0.0,0.0,0.0,0.0,0.0,0.0,0.0,0.0,1
-358.0,265.0,-105.0,-131.0,44.0,-116.0,-277.0,-92.0,0.0,0.0,0.0,0.0,0.0,0.0,0.0,0.0,1
-155.0,60.0,855.0,136.0,41.0,-208.0,-320.0,-389.0,0.0,0.0,0.0,0.0,0.0,0.0,0.0,0.0,1
-132.0,-290.0,1243.0,200.0,7.0,-167.0,-42.0,-170.0,0.0,0.0,0.0,0.0,0.0,0.0,0.0,0.0,1
315.0,-418.0,1108.0,141.0,-78.0,-83.0,94.0,251.0,0.0,0.0,0.0,0.0,0.0,0.0,0.0,0.0,1
711.0,-358.0,349.0,-58.0,-171.0,-91.0,-36.0,495.0,0.0,0.0,0.0,0.0,0.0,0.0,0.0,0.0,1
534.0,-250.0,-301.0,-286.0,-200.0,-123.0,-320.0,299.0,0.0,0.0,0.0,0.0,0.0,0.0,0.0,0.0,1
147.0,-65.0,-269.0,-232.0,-202.0,-301.0,-635.0,-358.0,0.0,0.0,0.0,0.0,0.0,0.0,0.0,0.0,1
-465.0,-189.0,-193.0,-218.0,-317.0,-553.0,-814.0,-1126.0,0.0,0.0,0.0,0.0,0.0,0.0,0.0,0.0,1
-697.0,-224.0,-146.0,6.0,-200.0,-464.0,-539.0,-763.0,0.0,0.0,0.0,0.0,0.0,0.0,0.0,0.0,1
-530.0,-164.0,-358.0,106.0,-40.0,-123.0,-48.0,77.0,0.0,0.0,0.0,0.0,0.0,0.0,0.0,0.0,1
-33.0,-71.0,-821.0,-224.0,-155.0,-71.0,186.0,499.0,0.0,0.0,0.0,0.0,0.0,0.0,0.0,0.0,1
368.0,-10.0,-1115.0,-550.0,-314.0,-107.0,134.0,414.0,0.0,0.0,0.0,0.0,0.0,0.0,0.0,0.0,1
499.0,101.0,-1078.0,-563.0,-247.0,100.0,437.0,500.0,0.0,0.0,0.0,0.0,0.0,0.0,0.0,0.0,1
573.0,139.0,-999.0,-517.0,-115.0,386.0,740.0,321.0,0.0,0.0,0.0,0.0,0.0,0.0,0.0,0.0,1
434.0,51.0,-962.0,-499.0,-47.0,403.0,539.0,-227.0,0.0,0.0,0.0,0.0,0.0,0.0,0.0,0.0,1
65.0,-106.0,-1007.0,-461.0,58.0,356.0,291.0,-235.0,0.0,0.0,0.0,0.0,0.0,0.0,0.0,0.0,1
-300.0,-145.0,-839.0,-296.0,150.0,483.0,416.0,206.0,0.0,0.0,0.0,0.0,0.0,0.0,0.0,0.0,1
-266.0,18.0,-444.0,-81.0,180.0,651.0,660.0,371.0,0.0,0.0,0.0,0.0,0.0,0.0,0.0,0.0,1
-38.0,176.0,-82.0,122.0,250.0,653.0,728.0,482.0,0.0,0.0,0.0,0.0,0.0,0.0,0.0,0.0,1
-63.0,168.0,267.0,277.0,269.0,456.0,272.0,229.0,0.0,0.0,0.0,0.0,0.0,0.0,0.0,0.0,1
-324.0,-48.0,205.0,69.0,-7.0,-9.0,-426.0,-513.0,0.0,0.0,0.0,0.0,0.0,0.0,0.0,0.0,1
-438.0,-158.0,50.0,-97.0,-161.0,-280.0,-779.0,-862.0,0.0,0.0,0.0,0.0,0.0,0.0,0.0,0.0,1
-128.0,19.0,136.0,44.0,-38.0,-318.0,-680.0,-493.0,0.0,0.0,0.0,0.0,0.0,0.0,0.0,0.0,1
191.0,111.0,215.0,173.0,95.0,-233.0,-464.0,-19.0,0.0,0.0,0.0,0.0,0.0,0.0,0.0,0.0,1
185.0,81.0,229.0,235.0,205.0,-81.0,-321.0,319.0,0.0,0.0,0.0,0.0,0.0,0.0,0.0,0.0,1
119.0,93.0,355.0,356.0,310.0,99.0,-210.0,370.0,0.0,0.0,0.0,0.0,0.0,0.0,0.0,0.0,1
18.0,22.0,443.0,434.0,338.0,116.0,-66.0,-149.0,0.0,0.0,0.0,0.0,0.0,0.0,0.0,0.0,1
-65.0,8.0,443.0,418.0,301.0,107.0,136.0,-579.0,0.0,0.0,0.0,0.0,0.0,0.0,0.0,0.0,1
-110.0,-6.0,318.0,239.0,131.0,131.0,228.0,-247.0,0.0,0.0,0.0,0.0,0.0,0.0,0.0,0.0,1
-65.0,-51.0,143.0,18.0,-94.0,-76.0,49.0,-146.0,0.0,0.0,0.0,0.0,0.0,0.0,0.0,0.0,1
-67.0,-112.0,40.0,-92.0,-224.0,-328.0,-251.0,-384.0,0.0,0.0,0.0,0.0,0.0,0.0,0.0,0.0,1
27.0,-59.0,45.0,-186.0,-404.0,-697.0,-523.0,-371.0,0.0,0.0,0.0,0.0,0.0,0.0,0.0,0.0,1
99.0,56.0,297.0,-180.0,-468.0,-805.0,-468.0,-61.0,0.0,0.0,0.0,0.0,0.0,0.0,0.0,0.0,1
209.0,242.0,797.0,83.0,-309.0,-619.0,-127.0,320.0,0.0,0.0,0.0,0.0,0.0,0.0,0.0,0.0,1
250.0,133.0,832.0,201.0,-240.0,-519.0,-46.0,200.0,0.0,0.0,0.0,0.0,0.0,0.0,0.0,0.0,1
188.0,-176.0,246.0,11.0,-226.0,-327.0,70.0,241.0,0.0,0.0,0.0,0.0,0.0,0.0,0.0,0.0,1
145.0,-338.0,-269.0,-123.0,-159.0,-88.0,186.0,566.0,0.0,0.0,0.0,0.0,0.0,0.0,0.0,0.0,1
174.0,-181.0,-96.0,-111.0,-94.0,130.0,247.0,575.0,0.0,0.0,0.0,0.0,0.0,0.0,0.0,0.0,1
89.0,-160.0,178.0,-82.0,-64.0,219.0,254.0,82.0,0.0,0.0,0.0,0.0,0.0,0.0,0.0,0.0,1
241.0,91.0,798.0,314.0,283.0,497.0,414.0,32.0,0.0,0.0,0.0,0.0,0.0,0.0,0.0,0.0,1
26.0,156.0,932.0,374.0,393.0,659.0,469.0,215.0,0.0,0.0,0.0,0.0,0.0,0.0,0.0,0.0,1
-571.0,-122.0,314.0,146.0,305.0,622.0,376.0,-106.0,0.0,0.0,0.0,0.0,0.0,0.0,0.0,0.0,1
-621.0,-314.0,-293.0,-123.0,127.0,378.0,109.0,-450.0,0.0,0.0,0.0,0.0,0.0,0.0,0.0,0.0,1
-574.0,-323.0,-556.0,-252.0,8.0,77.0,-256.0,-611.0,0.0,0.0,0.0,0.0,0.0,0.0,0.0,0.0,1
-767.0,-341.0,-769.0,-368.0,-130.0,-116.0,-449.0,-820.0,0.0,0.0,0.0,0.0,0.0,0.0,0.0,0.0,1
-633.0,-153.0,-741.0,-377.0,-186.0,-79.0,-205.0,-555.0,0.0,0.0,0.0,0.0,0.0,0.0,0.0,0.0,1
-393.0,-68.0,-829.0,-464.0,-284.0,-115.0,-58.0,-32.0,0.0,0.0,0.0,0.0,0.0,0.0,0.0,0.0,1
32.0,-53.0,-657.0,-398.0,-178.0,-73.0,-41.0,146.0,0.0,0.0,0.0,0.0,0.0,0.0,0.0,0.0,1
291.0,61.0,42.0,24.0,71.0,123.0,216.0,512.0,0.0,0.0,0.0,0.0,0.0,0.0,0.0,0.0,1
-56.0,3.0,458.0,352.0,224.0,318.0,491.0,1168.0,0.0,0.0,0.0,0.0,0.0,0.0,0.0,0.0,1
-138.0,72.0,777.0,583.0,316.0,338.0,445.0,896.0,0.0,0.0,0.0,0.0,0.0,0.0,0.0,0.0,1
-80.0,260.0,781.0,461.0,200.0,211.0,144.0,-56.0,0.0,0.0,0.0,0.0,0.0,0.0,0.0,0.0,1
-111.0,231.0,3.0,12.0,11.0,-45.0,-294.0,-833.0,0.0,0.0,0.0,0.0,0.0,0.0,0.0,0.0,1
-52.0,50.0,-494.0,-339.0,-207.0,-376.0,-846.0,-1379.0,0.0,0.0,0.0,0.0,0.0,0.0,0.0,0.0,1
-89.0,-109.0,-298.0,-340.0,-307.0,-565.0,-863.0,-1211.0,0.0,0.0,0.0,0.0,0.0,0.0,0.0,0.0,1
-188.0,-62.0,279.0,17.0,-144.0,-484.0,-423.0,-474.0,0.0,0.0,0.0,0.0,0.0,0.0,0.0,0.0,1
-58.0,45.0,519.0,102.0,-118.0,-359.0,-122.0,66.0,0.0,0.0,0.0,0.0,0.0,0.0,0.0,0.0,1
36.0,-73.0,35.0,-119.0,-199.0,-400.0,-191.0,285.0,0.0,0.0,0.0,0.0,0.0,0.0,0.0,0.0,1
-37.0,-241.0,-460.0,-268.0,-219.0,-478.0,-323.0,440.0,0.0,0.0,0.0,0.0,0.0,0.0,0.0,0.0,1
68.0,-151.0,-572.0,-206.0,-107.0,-378.0,-326.0,406.0,0.0,0.0,0.0,0.0,0.0,0.0,0.0,0.0,1
280.0,-68.0,-598.0,-175.0,-36.0,-183.0,-243.0,161.0,0.0,0.0,0.0,0.0,0.0,0.0,0.0,0.0,1
298.0,9.0,-487.0,-85.0,65.0,56.0,-18.0,-337.0,0.0,0.0,0.0,0.0,0.0,0.0,0.0,0.0,1
482.0,159.0,-253.0,74.0,207.0,267.0,241.0,-355.0,0.0,0.0,0.0,0.0,0.0,0.0,0.0,0.0,1
480.0,90.0,-399.0,-20.0,96.0,211.0,279.0,-85.0,0.0,0.0,0.0,0.0,0.0,0.0,0.0,0.0,1
212.0,-54.0,-639.0,-300.0,-216.0,-34.0,93.0,-102.0,0.0,0.0,0.0,0.0,0.0,0.0,0.0,0.0,1
-56.0,-150.0,-615.0,-418.0,-370.0,-18.0,37.0,-201.0,0.0,0.0,0.0,0.0,0.0,0.0,0.0,0.0,1
-118.0,-98.0,-504.0,-412.0,-316.0,194.0,161.0,-80.0,0.0,0.0,0.0,0.0,0.0,0.0,0.0,0.0,1
-92.0,123.0,-153.0,-185.0,-92.0,293.0,303.0,67.0,0.0,0.0,0.0,0.0,0.0,0.0,0.0,0.0,1
47.0,69.0,-85.0,-46.0,14.0,208.0,200.0,176.0,0.0,0.0,0.0,0.0,0.0,0.0,0.0,0.0,1
347.0,50.0,-298.0,33.0,29.0,22.0,123.0,366.0,0.0,0.0,0.0,0.0,0.0,0.0,0.0,0.0,1
347.0,-4.0,-340.0,52.0,51.0,-42.0,95.0,374.0,0.0,0.0,0.0,0.0,0.0,0.0,0.0,0.0,1
-69.0,-66.0,-147.0,31.0,69.0,-33.0,118.0,413.0,0.0,0.0,0.0,0.0,0.0,0.0,0.0,0.0,1
-342.0,-17.0,398.0,119.0,69.0,-140.0,19.0,365.0,0.0,0.0,0.0,0.0,0.0,0.0,0.0,0.0,1
-476.0,2.0,1115.0,264.0,1.0,-221.0,-141.0,163.0,0.0,0.0,0.0,0.0,0.0,0.0,0.0,0.0,1
-586.0,-243.0,938.0,120.0,-207.0,-410.0,-411.0,-305.0,0.0,0.0,0.0,0.0,0.0,0.0,0.0,0.0,1
-349.0,-300.0,469.0,179.0,-52.0,-219.0,-294.0,-28.0,0.0,0.0,0.0,0.0,0.0,0.0,0.0,0.0,1
-77.0,-79.0,9.0,172.0,100.0,-105.0,-32.0,117.0,0.0,0.0,0.0,0.0,0.0,0.0,0.0,0.0,1
150.0,250.0,-19.0,237.0,285.0,211.0,215.0,144.0,0.0,0.0,0.0,0.0,0.0,0.0,0.0,0.0,1
220.0,309.0,314.0,370.0,375.0,276.0,193.0,349.0,0.0,0.0,0.0,0.0,0.0,0.0,0.0,0.0,1
16.0,79.0,174.0,119.0,81.0,-113.0,-7.0,211.0,0.0,0.0,0.0,0.0,0.0,0.0,0.0,0.0,1
110.0,53.0,164.0,-33.0,-130.0,-23.0,215.0,123.0,0.0,0.0,0.0,0.0,0.0,0.0,0.0,0.0,1
214.0,-84.0,-200.0,-154.0,-137.0,262.0,412.0,121.0,0.0,0.0,0.0,0.0,0.0,0.0,0.0,0.0,1
-119.0,-396.0,-945.0,-479.0,-232.0,94.0,0.0,-197.0,0.0,0.0,0.0,0.0,0.0,0.0,0.0,0.0,1
-386.0,-343.0,-599.0,-419.0,-275.0,-291.0,-575.0,-973.0,0.0,0.0,0.0,0.0,0.0,0.0,0.0,0.0,1
-514.0,-248.0,205.0,-127.0,-177.0,-352.0,-629.0,-1075.0,0.0,0.0,0.0,0.0,0.0,0.0,0.0,0.0,1
-71.0,23.0,1064.0,345.0,71.0,-154.0,-395.0,-715.0,0.0,0.0,0.0,0.0,0.0,0.0,0.0,0.0,1
370.0,268.0,1308.0,605.0,244.0,-30.0,-192.0,-274.0,0.0,0.0,0.0,0.0,0.0,0.0,0.0,0.0,1
168.0,52.0,316.0,371.0,247.0,14.0,-71.0,-54.0,0.0,0.0,0.0,0.0,0.0,0.0,0.0,0.0,1
-320.0,-285.0,-386.0,-1.0,64.0,17.0,-251.0,-707.0,0.0,0.0,0.0,0.0,0.0,0.0,0.0,0.0,1
-279.0,-278.0,-457.0,-203.0,-75.0,82.0,-134.0,-572.0,0.0,0.0,0.0,0.0,0.0,0.0,0.0,0.0,1
94.0,45.0,-95.0,-128.0,-30.0,173.0,85.0,-1.0,0.0,0.0,0.0,0.0,0.0,0.0,0.0,0.0,1
30.0,97.0,111.0,-219.0,-118.0,-32.0,40.0,158.0,0.0,0.0,0.0,0.0,0.0,0.0,0.0,0.0,1
-220.0,-20.0,-67.0,-241.0,-78.0,-111.0,174.0,234.0,0.0,0.0,0.0,0.0,0.0,0.0,0.0,0.0,1
61.0,121.0,-150.0,-143.0,-74.0,-60.0,422.0,592.0,0.0,0.0,0.0,0.0,0.0,0.0,0.0,0.0,1
318.0,151.0,-248.0,-257.0,-268.0,45.0,765.0,1064.0,0.0,0.0,0.0,0.0,0.0,0.0,0.0,0.0,1
-31.0,-101.0,-408.0,-371.0,-364.0,80.0,645.0,1130.0,0.0,0.0,0.0,0.0,0.0,0.0,0.0,0.0,1
-168.0,-220.0,-427.0,-294.0,-221.0,-1.0,226.0,285.0,0.0,0.0,0.0,0.0,0.0,0.0,0.0,0.0,1
-283.0,-173.0,-250.0,-35.0,28.0,22.0,-81.0,-670.0,0.0,0.0,0.0,0.0,0.0,0.0,0.0,0.0,1
-523.0,-278.0,-380.0,-15.0,37.0,-40.0,-447.0,-972.0,0.0,0.0,0.0,0.0,0.0,0.0,0.0,0.0,1
-357.0,-265.0,-578.0,-170.0,-76.0,-150.0,-516.0,-628.0,0.0,0.0,0.0,0.0,0.0,0.0,0.0,0.0,1
186.0,-73.0,-563.0,-277.0,-138.0,-112.0,-349.0,-148.0,0.0,0.0,0.0,0.0,0.0,0.0,0.0,0.0,1
516.0,-38.0,-689.0,-416.0,-228.0,-209.0,-360.0,210.0,0.0,0.0,0.0,0.0,0.0,0.0,0.0,0.0,1
38.0,-127.0,-575.0,-429.0,-236.0,-366.0,-356.0,471.0,0.0,0.0,0.0,0.0,0.0,0.0,0.0,0.0,1
-54.0,13.0,-170.0,-163.0,-25.0,-208.0,-124.0,618.0,0.0,0.0,0.0,0.0,0.0,0.0,0.0,0.0,1
290.0,201.0,168.0,215.0,272.0,177.0,207.0,546.0,0.0,0.0,0.0,0.0,0.0,0.0,0.0,0.0,1
125.0,280.0,614.0,502.0,331.0,231.0,66.0,197.0,0.0,0.0,0.0,0.0,0.0,0.0,0.0,0.0,1
-264.0,139.0,510.0,457.0,150.0,112.0,151.0,238.0,0.0,0.0,0.0,0.0,0.0,0.0,0.0,0.0,1
-319.0,20.0,158.0,287.0,144.0,255.0,391.0,-165.0,0.0,0.0,0.0,0.0,0.0,0.0,0.0,0.0,1
-131.0,64.0,258.0,256.0,298.0,571.0,581.0,-583.0,0.0,0.0,0.0,0.0,0.0,0.0,0.0,0.0,1
-260.0,-207.0,246.0,128.0,224.0,592.0,433.0,-375.0,0.0,0.0,0.0,0.0,0.0,0.0,0.0,0.0,1
-173.0,-318.0,359.0,146.0,138.0,341.0,-58.0,-97.0,0.0,0.0,0.0,0.0,0.0,0.0,0.0,0.0,1
-231.0,-241.0,434.0,232.0,33.0,-183.0,-581.0,-44.0,0.0,0.0,0.0,0.0,0.0,0.0,0.0,0.0,1
-174.0,-99.0,52.0,-29.0,-315.0,-944.0,-905.0,-408.0,0.0,0.0,0.0,0.0,0.0,0.0,0.0,0.0,1
210.0,70.0,-291.0,-334.0,-490.0,-969.0,-605.0,-703.0,0.0,0.0,0.0,0.0,0.0,0.0,0.0,0.0,1
433.0,177.0,20.0,-169.0,-293.0,-537.0,-35.0,-240.0,0.0,0.0,0.0,0.0,0.0,0.0,0.0,0.0,1
707.0,316.0,561.0,177.0,-2.0,-140.0,239.0,229.0,0.0,0.0,0.0,0.0,0.0,0.0,0.0,0.0,1
679.0,288.0,650.0,299.0,122.0,27.0,191.0,346.0,0.0,0.0,0.0,0.0,0.0,0.0,0.0,0.0,1
280.0,87.0,320.0,133.0,47.0,-23.0,12.0,443.0,0.0,0.0,0.0,0.0,0.0,0.0,0.0,0.0,1
-39.0,-126.0,-135.0,-62.0,-24.0,-44.0,-162.0,135.0,0.0,0.0,0.0,0.0,0.0,0.0,0.0,0.0,1
-25.0,-89.0,-331.0,-116.0,-40.0,-37.0,-65.0,201.0,0.0,0.0,0.0,0.0,0.0,0.0,0.0,0.0,1
82.0,-130.0,-516.0,-211.0,-24.0,160.0,227.0,257.0,0.0,0.0,0.0,0.0,0.0,0.0,0.0,0.0,1
-15.0,-148.0,-641.0,-250.0,49.0,258.0,124.0,-292.0,0.0,0.0,0.0,0.0,0.0,0.0,0.0,0.0,1
-178.0,-89.0,-383.0,-163.0,47.0,200.0,-80.0,-563.0,0.0,0.0,0.0,0.0,0.0,0.0,0.0,0.0,1
-526.0,-282.0,-419.0,-314.0,-182.0,94.0,-370.0,-735.0,0.0,0.0,0.0,0.0,0.0,0.0,0.0,0.0,1
-523.0,-271.0,-338.0,-289.0,-209.0,21.0,-506.0,-665.0,0.0,0.0,0.0,0.0,0.0,0.0,0.0,0.0,1
-418.0,-43.0,-115.0,-65.0,-69.0,-29.0,-271.0,-252.0,0.0,0.0,0.0,0.0,0.0,0.0,0.0,0.0,1
-118.0,61.0,-191.0,-73.0,-42.0,-56.0,24.0,73.0,0.0,0.0,0.0,0.0,0.0,0.0,0.0,0.0,1
-183.0,-24.0,-150.0,-125.0,-132.0,-194.0,144.0,557.0,0.0,0.0,0.0,0.0,0.0,0.0,0.0,0.0,1
-237.0,-27.0,76.0,-182.0,-304.0,-336.0,48.0,607.0,0.0,0.0,0.0,0.0,0.0,0.0,0.0,0.0,1
-160.0,-35.0,409.0,-14.0,-326.0,-409.0,18.0,525.0,0.0,0.0,0.0,0.0,0.0,0.0,0.0,0.0,1
282.0,235.0,1037.0,284.0,-213.0,-288.0,124.0,477.0,0.0,0.0,0.0,0.0,0.0,0.0,0.0,0.0,1
273.0,167.0,718.0,94.0,-253.0,-256.0,73.0,279.0,0.0,0.0,0.0,0.0,0.0,0.0,0.0,0.0,1
-145.0,-172.0,-57.0,-193.0,-259.0,-253.0,52.0,382.0,0.0,0.0,0.0,0.0,0.0,0.0,0.0,0.0,1
11.0,-195.0,-599.0,-221.0,-61.0,-4.0,169.0,395.0,0.0,0.0,0.0,0.0,0.0,0.0,0.0,0.0,1
170.0,-55.0,-919.0,-223.0,135.0,367.0,361.0,16.0,0.0,0.0,0.0,0.0,0.0,0.0,0.0,0.0,1
-21.0,-17.0,-823.0,-245.0,189.0,382.0,158.0,-487.0,0.0,0.0,0.0,0.0,0.0,0.0,0.0,0.0,1
-291.0,-56.0,-332.0,-68.0,245.0,267.0,-219.0,-1111.0,0.0,0.0,0.0,0.0,0.0,0.0,0.0,0.0,1
-437.0,-103.0,251.0,131.0,271.0,197.0,-285.0,-821.0,0.0,0.0,0.0,0.0,0.0,0.0,0.0,0.0,1
-216.0,-13.0,718.0,343.0,238.0,100.0,-244.0,-341.0,0.0,0.0,0.0,0.0,0.0,0.0,0.0,0.0,1
-36.0,-179.0,150.0,260.0,208.0,77.0,-157.0,-606.0,0.0,0.0,0.0,0.0,0.0,0.0,0.0,0.0,1
-17.0,-205.0,-360.0,60.0,132.0,76.0,-166.0,-1100.0,0.0,0.0,0.0,0.0,0.0,0.0,0.0,0.0,1
317.0,28.0,-148.0,-35.0,21.0,61.0,-76.0,-608.0,0.0,0.0,0.0,0.0,0.0,0.0,0.0,0.0,1
304.0,-19.0,232.0,-59.0,-38.0,111.0,132.0,-69.0,0.0,0.0,0.0,0.0,0.0,0.0,0.0,0.0,1
5.0,-131.0,366.0,-28.0,-33.0,200.0,255.0,128.0,0.0,0.0,0.0,0.0,0.0,0.0,0.0,0.0,1
-252.0,-186.0,422.0,-49.0,-83.0,210.0,151.0,310.0,0.0,0.0,0.0,0.0,0.0,0.0,0.0,0.0,1
-254.0,-221.0,314.0,-50.0,-90.0,-48.0,-156.0,376.0,0.0,0.0,0.0,0.0,0.0,0.0,0.0,0.0,1
65.0,-80.0,60.0,114.0,60.0,-269.0,-131.0,523.0,0.0,0.0,0.0,0.0,0.0,0.0,0.0,0.0,1
111.0,71.0,-136.0,111.0,83.0,-381.0,-117.0,478.0,0.0,0.0,0.0,0.0,0.0,0.0,0.0,0.0,1
-218.0,-12.0,-329.0,-48.0,-32.0,-385.0,-189.0,351.0,0.0,0.0,0.0,0.0,0.0,0.0,0.0,0.0,1
-14.0,27.0,-436.0,-169.0,-163.0,-347.0,-318.0,130.0,0.0,0.0,0.0,0.0,0.0,0.0,0.0,0.0,1
162.0,15.0,-727.0,-339.0,-294.0,-353.0,-339.0,29.0,0.0,0.0,0.0,0.0,0.0,0.0,0.0,0.0,1
185.0,79.0,-1004.0,-425.0,-282.0,-245.0,-68.0,194.0,0.0,0.0,0.0,0.0,0.0,0.0,0.0,0.0,1
234.0,220.0,-957.0,-299.0,-161.0,-90.0,198.0,382.0,0.0,0.0,0.0,0.0,0.0,0.0,0.0,0.0,1
203.0,136.0,-719.0,-162.0,-62.0,99.0,281.0,325.0,0.0,0.0,0.0,0.0,0.0,0.0,0.0,0.0,1
187.0,33.0,-193.0,-170.0,-84.0,146.0,115.0,201.0,0.0,0.0,0.0,0.0,0.0,0.0,0.0,0.0,1
154.0,68.0,742.0,85.0,31.0,156.0,97.0,93.0,0.0,0.0,0.0,0.0,0.0,0.0,0.0,0.0,1
86.0,73.0,1440.0,589.0,420.0,451.0,439.0,499.0,0.0,0.0,0.0,0.0,0.0,0.0,0.0,0.0,1
127.0,150.0,1074.0,679.0,593.0,676.0,844.0,1092.0,0.0,0.0,0.0,0.0,0.0,0.0,0.0,0.0,1
-218.0,52.0,257.0,226.0,256.0,415.0,564.0,467.0,0.0,0.0,0.0,0.0,0.0,0.0,0.0,0.0,1
-499.0,-168.0,-17.0,-70.0,-68.0,47.0,21.0,-344.0,0.0,0.0,0.0,0.0,0.0,0.0,0.0,0.0,1
-503.0,-257.0,112.0,-182.0,-311.0,-360.0,-739.0,-1306.0,0.0,0.0,0.0,0.0,0.0,0.0,0.0,0.0,1
-477.0,-160.0,583.0,-53.0,-385.0,-625.0,-1035.0,-1730.0,0.0,0.0,0.0,0.0,0.0,0.0,0.0,0.0,1
-520.0,-277.0,342.0,-133.0,-470.0,-707.0,-661.0,-1009.0,0.0,0.0,0.0,0.0,0.0,0.0,0.0,0.0,1
-80.0,-147.0,-61.0,-249.0,-445.0,-577.0,-279.0,-154.0,0.0,0.0,0.0,0.0,0.0,0.0,0.0,0.0,1
310.0,131.0,-53.0,-113.0,-228.0,-339.0,-56.0,300.0,0.0,0.0,0.0,0.0,0.0,0.0,0.0,0.0,1
128.0,121.0,27.0,-28.0,-137.0,-193.0,0.0,394.0,0.0,0.0,0.0,0.0,0.0,0.0,0.0,0.0,1
-18.0,22.0,5.0,-49.0,-131.0,-128.0,36.0,445.0,0.0,0.0,0.0,0.0,0.0,0.0,0.0,0.0,1
-13.0,-113.0,-249.0,-140.0,-81.0,-66.0,3.0,255.0,0.0,0.0,0.0,0.0,0.0,0.0,0.0,0.0,1
-125.0,-214.0,-506.0,-253.0,-69.0,-128.0,-240.0,-332.0,0.0,0.0,0.0,0.0,0.0,0.0,0.0,0.0,1
-242.0,-203.0,-555.0,-252.0,-20.0,-109.0,-346.0,-583.0,0.0,0.0,0.0,0.0,0.0,0.0,0.0,0.0,1
-214.0,-132.0,-572.0,-218.0,24.0,-9.0,-242.0,-434.0,0.0,0.0,0.0,0.0,0.0,0.0,0.0,0.0,1
-174.0,-122.0,-623.0,-188.0,77.0,86.0,-247.0,-474.0,0.0,0.0,0.0,0.0,0.0,0.0,0.0,0.0,1
-66.0,-161.0,-658.0,-201.0,93.0,114.0,-294.0,-610.0,0.0,0.0,0.0,0.0,0.0,0.0,0.0,0.0,1
381.0,-71.0,-538.0,-127.0,167.0,307.0,207.0,-64.0,0.0,0.0,0.0,0.0,0.0,0.0,0.0,0.0,1
826.0,150.0,-265.0,168.0,427.0,612.0,687.0,720.0,0.0,0.0,0.0,0.0,0.0,0.0,0.0,0.0,1
657.0,201.0,-229.0,35.0,225.0,501.0,748.0,1107.0,0.0,0.0,0.0,0.0,0.0,0.0,0.0,0.0,1
156.0,157.0,-156.0,-180.0,-99.0,227.0,650.0,893.0,0.0,0.0,0.0,0.0,0.0,0.0,0.0,0.0,1
-454.0,-6.0,76.0,-228.0,-245.0,-45.0,251.0,-28.0,0.0,0.0,0.0,0.0,0.0,0.0,0.0,0.0,1
-510.0,38.0,728.0,104.0,-151.0,-278.0,-174.0,-737.0,0.0,0.0,0.0,0.0,0.0,0.0,0.0,0.0,1
-371.0,52.0,1152.0,417.0,-67.0,-366.0,-278.0,-511.0,0.0,0.0,0.0,0.0,0.0,0.0,0.0,0.0,1
-294.0,-38.0,896.0,338.0,-101.0,-321.0,-326.0,-345.0,0.0,0.0,0.0,0.0,0.0,0.0,0.0,0.0,1
-155.0,-122.0,315.0,158.0,-29.0,-101.0,-133.0,-169.0,0.0,0.0,0.0,0.0,0.0,0.0,0.0,0.0,1
-46.0,-124.0,160.0,173.0,68.0,84.0,79.0,27.0,0.0,0.0,0.0,0.0,0.0,0.0,0.0,0.0,1
-132.0,-84.0,147.0,253.0,161.0,278.0,194.0,196.0,0.0,0.0,0.0,0.0,0.0,0.0,0.0,0.0,1
-25.0,3.0,67.0,285.0,240.0,418.0,253.0,325.0,0.0,0.0,0.0,0.0,0.0,0.0,0.0,0.0,1
7.0,-77.0,-125.0,107.0,178.0,337.0,145.0,200.0,0.0,0.0,0.0,0.0,0.0,0.0,0.0,0.0,1
-82.0,-102.0,-392.0,-183.0,-70.0,-73.0,-201.0,27.0,0.0,0.0,0.0,0.0,0.0,0.0,0.0,0.0,1
-212.0,-33.0,-511.0,-373.0,-276.0,-377.0,-428.0,-149.0,0.0,0.0,0.0,0.0,0.0,0.0,0.0,0.0,1
-270.0,-111.0,-580.0,-445.0,-336.0,-482.0,-518.0,-323.0,0.0,0.0,0.0,0.0,0.0,0.0,0.0,0.0,1
-50.0,-132.0,-439.0,-305.0,-222.0,-434.0,-463.0,-284.0,0.0,0.0,0.0,0.0,0.0,0.0,0.0,0.0,1
